-0.0090654|0.0059346|0.0059346|0.00093457|-0.019065|-0.024065|-0.0090654|-0.019065|-0.0040654|0.00093457|-0.0090654|-0.014065|-0.014065|-0.014065|-0.014065|0.00093457|-0.0090654|-0.014065|-0.0090654|0.00093457|0.0059346|0.0059346|-0.014065|-0.024065|-0.019065|-0.0040654|-0.0040654|0.010935|0.00093457|-0.014065|-0.0090654|0.0059346|0.010935|0.010935|0.0059346|0.00093457|0.0059346|0.00093457|0.0059346|0.020935|0.0059346|0.00093457|-0.0090654|0.0059346|0.010935|0.0059346|-0.0090654|-0.0040654|-0.0090654|0.010935|0.020935|0.010935|0.010935|0.00093457|0.0059346|0.015935|0.010935|0.020935|0.0059346|0.0059346|0.0059346|0.015935|0.025935|0.015935|0.00093457|-0.0040654|0.00093457|0.0059346|0.015935|0.035935|0.015935|0.025935|0.030935|0.045935|0.070935|0.075935|0.050935|0.025935|0.010935|0.00093457|0.00093457|-0.034065|-0.069065|-0.10407|-0.12407|-0.14407|-0.18907|-0.25907|-0.32407|-0.39907|-0.44907|-0.53407|-0.59907|-0.74407|-0.87407|-0.92407|-0.91907|-0.86907|-0.81407|-0.76907|-0.70407|-0.64407|-0.56907|-0.50907|-0.46407|-0.43407|-0.39907|-0.35407|-0.32407|-0.29407|-0.24907|-0.19407|-0.15907|-0.089065|-0.034065|0.020935|0.055935|0.060935|0.075935|0.070935|0.075935|0.090935|0.11093|0.11093|0.085935|0.085935|0.095935|0.12093|0.13093|0.12593|0.11593|0.11593|0.12593|0.13593|0.14593|0.13593|0.13593|0.12593|0.14093|0.14593|0.15593|0.16093|0.14093|0.13093|0.14093|0.15593|0.17093|0.16593|0.15593|0.15593|0.17093|0.17593|0.19593|0.18093|0.18093|0.19093|0.18593|0.20593|0.22093|0.21593|0.20093|0.20593|0.21093|0.22093|0.22593|0.23093|0.23593|0.21593|0.21593|0.24593|0.24593|0.25093|0.25093|0.24593|0.26093|0.26093|0.26593|0.28093|0.26593|0.27093|0.27593|0.27593|0.29093|0.30093|0.29593|0.29093|0.29593|0.30093|0.31093|0.30593|0.30593|0.29593|0.31093|0.33093|0.34093|0.34593|0.33093|0.34093|0.34593|0.36093|0.37093|0.37093|0.36093|0.35593|0.35093|0.37593|0.39093|0.39093|0.37093|0.36593|0.37593|0.38593|0.39093|0.40093|0.39093|0.38593|0.39593|0.41093|0.43593|0.41593|0.41093|0.40093|0.40093|0.40093|0.42093|0.41093|0.40093|0.40093|0.39093|0.40093|0.41593|0.40593|0.40093|0.40593|0.41093|0.42093|0.42593|0.43593|0.41593|0.41093|0.41093|0.43593|0.44593|0.44093|0.43093|0.41593|0.44093|0.45593|0.46093|0.46093|0.44593|0.44593|0.46093|0.47593|0.49593|0.49093|0.49593|0.49093|0.52093|0.53093|0.54593|0.55093|0.53593|0.55593|0.57093|0.58593|0.61093|0.61593|0.60593|0.60593|0.63093|0.65093|0.65593|0.66593|0.66093|0.67093|0.69093|0.70593|0.71593|0.71593|0.70593|0.71593|0.72093|0.73593|0.73093|0.75093|0.73593|0.74593|0.73593|0.75093|0.75093|0.74593|0.73093|0.72093|0.73093|0.74093|0.73593|0.72593|0.71593|0.70593|
0.00093457|0.010935|0.010935|0.0059346|0.00093457|0.00093457|0.015935|0.010935|0.010935|0.010935|0.00093457|0.010935|0.015935|0.030935|0.015935|0.010935|0.015935|0.015935|0.025935|0.025935|0.035935|0.025935|0.010935|0.020935|0.025935|0.020935|0.020935|0.015935|0.0059346|0.015935|0.025935|0.040935|0.035935|0.020935|0.010935|0.020935|0.025935|0.030935|0.040935|0.025935|0.020935|0.025935|0.040935|0.020935|0.020935|0.025935|0.0059346|0.010935|0.030935|0.030935|0.035935|0.025935|0.025935|0.035935|0.025935|0.045935|0.035935|0.035935|0.025935|0.035935|0.025935|0.035935|0.045935|0.025935|0.015935|0.025935|0.030935|0.040935|0.045935|0.035935|0.035935|0.050935|0.075935|0.080935|0.085935|0.045935|0.030935|0.040935|0.020935|0.025935|0.020935|-0.0090654|-0.029065|-0.059065|-0.069065|-0.10407|-0.15907|-0.23407|-0.31407|-0.35407|-0.42407|-0.50907|-0.60407|-0.73907|-0.86907|-0.91907|-0.92907|-0.87907|-0.84907|-0.80407|-0.73907|-0.62907|-0.52907|-0.47907|-0.43907|-0.40407|-0.35907|-0.30907|-0.24907|-0.19907|-0.16407|-0.13407|-0.099065|-0.019065|0.040935|0.095935|0.11593|0.12593|0.13093|0.15093|0.15593|0.16093|0.17093|0.17093|0.16093|0.17093|0.18593|0.20093|0.19093|0.17593|0.17093|0.19593|0.20593|0.21093|0.22093|0.21593|0.21593|0.22093|0.23593|0.23593|0.24593|0.23093|0.23593|0.25093|0.24593|0.26593|0.26093|0.25093|0.25593|0.26593|0.27593|0.29593|0.27593|0.28593|0.29593|0.30593|0.32093|0.32593|0.33093|0.32593|0.32593|0.33593|0.35593|0.35593|0.34093|0.32593|0.33593|0.34593|0.36593|0.37593|0.38593|0.37093|0.37093|0.37593|0.41093|0.42093|0.42093|0.41593|0.42593|0.42593|0.43593|0.45093|0.45593|0.44593|0.44093|0.45093|0.45593|0.47093|0.45593|0.46093|0.45593|0.48093|0.49093|0.50093|0.50093|0.48093|0.48593|0.48093|0.49593|0.51593|0.50093|0.48593|0.49093|0.50093|0.50593|0.51093|0.50593|0.50093|0.49593|0.49093|0.51093|0.52093|0.51093|0.50093|0.50593|0.51593|0.51593|0.50093|0.51593|0.50093|0.50593|0.51093|0.52093|0.52593|0.51593|0.51593|0.51093|0.52093|0.53093|0.53093|0.52093|0.52093|0.53093|0.53093|0.54593|0.56093|0.54593|0.54093|0.53593|0.55593|0.57093|0.58093|0.58593|0.56093|0.56093|0.58593|0.59093|0.60593|0.59593|0.59093|0.61093|0.62593|0.63593|0.64593|0.64093|0.63093|0.63093|0.64093|0.66093|0.66593|0.66093|0.65593|0.64593|0.66093|0.67593|0.67093|0.66093|0.64593|0.64593|0.65593|0.66593|0.65593|0.64593|0.63593|0.62593|0.63593|0.63093|0.63093|0.61593|0.60093|0.57593|0.57093|0.58093|0.57593|0.55593|0.53593|0.52593|0.52593|0.53093|0.53093|0.53093|0.51093|0.50093|0.49093|0.49593|0.48593|0.46093|0.46093|0.44093|0.44593|
-0.25907|-0.26407|-0.27407|-0.28407|-0.26907|-0.26407|-0.24407|-0.23407|-0.21407|-0.22407|-0.21407|-0.20907|-0.20407|-0.19407|-0.19907|-0.19907|-0.18907|-0.18907|-0.16907|-0.17907|-0.18407|-0.18407|-0.18907|-0.16407|-0.14407|-0.13407|-0.14907|-0.14407|-0.14407|-0.11407|-0.094065|-0.11407|-0.11907|-0.13907|-0.12907|-0.10907|-0.089065|-0.089065|-0.089065|-0.11407|-0.11907|-0.10907|-0.099065|-0.094065|-0.099065|-0.099065|-0.099065|-0.089065|-0.074065|-0.074065|-0.099065|-0.099065|-0.10907|-0.064065|-0.059065|-0.059065|-0.079065|-0.084065|-0.079065|-0.059065|-0.074065|-0.094065|-0.094065|-0.089065|-0.069065|-0.054065|-0.049065|-0.024065|-0.034065|-0.024065|-0.034065|-0.044065|-0.044065|-0.069065|-0.074065|-0.089065|-0.10407|-0.10907|-0.14407|-0.17407|-0.17907|-0.17407|-0.19407|-0.24907|-0.31407|-0.36407|-0.36907|-0.37407|-0.41407|-0.50407|-0.63907|-0.79907|-0.93907|-0.97407|-0.94407|-0.91407|-0.88407|-0.83907|-0.80407|-0.75407|-0.73407|-0.66407|-0.60907|-0.56407|-0.53407|-0.49907|-0.44907|-0.38407|-0.29907|-0.22907|-0.15907|-0.054065|0.020935|0.080935|0.11093|0.11593|0.12593|0.12593|0.12593|0.14093|0.14593|0.14093|0.13093|0.15093|0.15593|0.17093|0.19093|0.20093|0.20093|0.19593|0.19593|0.22093|0.24093|0.23593|0.23593|0.23593|0.24093|0.24593|0.26093|0.26093|0.25093|0.28593|0.29093|0.29593|0.31593|0.31593|0.32593|0.32593|0.33093|0.36093|0.39593|0.38593|0.36593|0.36593|0.37093|0.39593|0.43093|0.42593|0.40593|0.40093|0.41593|0.42593|0.44593|0.45093|0.46093|0.47093|0.48093|0.50093|0.52093|0.50593|0.49593|0.49093|0.49593|0.51593|0.53593|0.54093|0.53093|0.53093|0.53593|0.54593|0.58093|0.57593|0.56593|0.55593|0.57093|0.58593|0.59093|0.58093|0.60093|0.60593|0.60093|0.60093|0.62093|0.60593|0.61593|0.60593|0.61093|0.63093|0.65093|0.62593|0.59593|0.59593|0.60593|0.63093|0.65093|0.63593|0.61093|0.62593|0.60593|0.61093|0.63593|0.63093|0.61593|0.59093|0.58593|0.59093|0.59593|0.59593|0.58593|0.56093|0.56093|0.55093|0.54593|0.55093|0.54093|0.53093|0.52593|0.51593|0.52093|0.51093|0.50593|0.49093|0.47593|0.48093|0.48093|0.45093|0.44093|0.42593|0.41593|0.41593|0.40093|0.38093|0.36093|0.34093|0.32093|0.31093|0.32093|0.31593|0.29593|0.26593|0.26593|0.25593|0.25093|0.23593|0.21593|0.19093|0.15093|0.15093|0.15593|0.13093|0.12593|0.11593|0.11093|0.12093|0.13093|0.12093|0.10593|0.080935|0.070935|0.070935|0.080935|0.070935|0.045935|0.025935|0.00093457|0.015935|0.040935|0.030935|0.0059346|0.0059346|-0.014065|-0.024065|-0.024065|-0.039065|-0.054065|-0.074065|-0.074065|-0.069065|-0.054065|-0.059065|-0.069065|-0.074065|-0.084065|-0.069065|-0.059065|-0.069065|-0.089065|-0.10407|-0.10907|-0.11407|
-0.074065|-0.084065|-0.069065|-0.059065|-0.069065|-0.089065|-0.10407|-0.10907|-0.11407|-0.10907|-0.11907|-0.12907|-0.13907|-0.14407|-0.12907|-0.11907|-0.12907|-0.12407|-0.13407|-0.13907|-0.13907|-0.12407|-0.12907|-0.13407|-0.14407|-0.14407|-0.14907|-0.11907|-0.12907|-0.15407|-0.14407|-0.15907|-0.15407|-0.13407|-0.14907|-0.14907|-0.14907|-0.15907|-0.14407|-0.13407|-0.11907|-0.13407|-0.13907|-0.16407|-0.14407|-0.12407|-0.14407|-0.13907|-0.14907|-0.15407|-0.14407|-0.14407|-0.13907|-0.15407|-0.15407|-0.17407|-0.17407|-0.15407|-0.14407|-0.14907|-0.15907|-0.16407|-0.14907|-0.14407|-0.14407|-0.14907|-0.15907|-0.14907|-0.13907|-0.14407|-0.13907|-0.13407|-0.14907|-0.15407|-0.13907|-0.13907|-0.15407|-0.17907|-0.20407|-0.20907|-0.22407|-0.23907|-0.26907|-0.30907|-0.36407|-0.43907|-0.52907|-0.61907|-0.72407|-0.82907|-0.93907|-1.0391|-1.1341|-1.2691|-1.3841|-1.4541|-1.4341|-1.3941|-1.3241|-1.2341|-1.1191|-1.0141|-0.94407|-0.88907|-0.82907|-0.75907|-0.69407|-0.65907|-0.61907|-0.58407|-0.55907|-0.48907|-0.44407|-0.39407|-0.34907|-0.27907|-0.20907|-0.16407|-0.13907|-0.13907|-0.14407|-0.14407|-0.13407|-0.11407|-0.11907|-0.13407|-0.14407|-0.13907|-0.10407|-0.10407|-0.10907|-0.12407|-0.12407|-0.12407|-0.10407|-0.079065|-0.089065|-0.089065|-0.094065|-0.089065|-0.069065|-0.054065|-0.049065|-0.069065|-0.079065|-0.064065|-0.049065|-0.024065|-0.034065|-0.039065|-0.044065|-0.034065|-0.019065|-0.024065|-0.019065|0.00093457|-0.014065|-0.019065|0.010935|0.025935|0.035935|0.020935|0.030935|0.035935|0.045935|0.060935|0.050935|0.045935|0.050935|0.050935|0.060935|0.070935|0.070935|0.065935|0.055935|0.050935|0.060935|0.080935|0.095935|0.090935|0.080935|0.080935|0.075935|0.095935|0.11093|0.10093|0.085935|0.080935|0.095935|0.095935|0.095935|0.095935|0.085935|0.080935|0.090935|0.11093|0.10593|0.10093|0.080935|0.090935|0.10093|0.10093|0.11593|0.095935|0.090935|0.095935|0.11093|0.10593|0.10093|0.085935|0.080935|0.065935|0.085935|0.10093|0.080935|0.080935|0.070935|0.070935|0.085935|0.080935|0.095935|0.065935|0.055935|0.060935|0.065935|0.065935|0.060935|0.030935|0.020935|0.020935|0.020935|0.030935|0.045935|0.035935|0.015935|0.015935|0.020935|0.020935|0.010935|-0.0040654|-0.029065|-0.044065|-0.034065|-0.044065|-0.039065|-0.069065|-0.089065|-0.10407|-0.094065|-0.094065|-0.089065|-0.11407|-0.13407|-0.13907|-0.14407|-0.12907|-0.15407|-0.18407|-0.19907|-0.20407|-0.21407|-0.21907|-0.23907|-0.26407|-0.29407|-0.30907|-0.31407|-0.30907|-0.32407|-0.32907|-0.34907|-0.35907|-0.35407|-0.35407|-0.36407|-0.37907|-0.39407|-0.40407|-0.39907|-0.39407|-0.40907|-0.42407|-0.43907|-0.44907|-0.44407|-0.43907|-0.45407|-0.46907|-0.47907|-0.47907|-0.46407|-0.45907|-0.45407|-0.47907|-0.48907|-0.48407|-0.48907|-0.47407|-0.48907|-0.50407|
-0.57407|-0.58907|-0.60407|-0.58907|-0.57907|-0.58407|-0.57407|-0.58907|-0.58407|-0.58907|-0.58407|-0.57907|-0.57907|-0.58907|-0.61407|-0.60407|-0.59407|-0.58907|-0.58907|-0.60407|-0.60407|-0.60907|-0.59407|-0.57907|-0.58907|-0.58407|-0.59407|-0.59907|-0.57907|-0.57407|-0.57407|-0.59907|-0.60407|-0.59907|-0.57907|-0.56407|-0.58407|-0.58407|-0.60407|-0.60407|-0.58407|-0.56907|-0.57407|-0.57907|-0.58907|-0.58907|-0.57907|-0.56407|-0.55907|-0.56907|-0.57407|-0.56407|-0.56407|-0.54407|-0.54407|-0.55907|-0.57907|-0.57407|-0.56907|-0.55907|-0.55907|-0.56407|-0.57407|-0.57407|-0.54407|-0.53907|-0.52907|-0.53407|-0.53407|-0.52407|-0.51407|-0.49407|-0.50407|-0.51407|-0.50907|-0.52407|-0.52407|-0.54907|-0.57407|-0.59407|-0.63407|-0.64407|-0.66407|-0.67407|-0.70907|-0.77407|-0.87407|-0.95907|-1.0341|-1.0841|-1.1741|-1.2741|-1.3691|-1.5041|-1.6391|-1.7041|-1.7291|-1.6741|-1.6241|-1.5491|-1.4441|-1.3541|-1.2341|-1.1591|-1.0941|-1.0341|-0.93907|-0.87407|-0.83407|-0.80407|-0.77907|-0.71907|-0.64907|-0.56407|-0.49407|-0.44407|-0.41407|-0.38907|-0.35907|-0.34907|-0.34407|-0.35407|-0.34407|-0.34407|-0.32907|-0.31407|-0.29907|-0.30407|-0.30407|-0.29407|-0.26907|-0.25407|-0.25907|-0.25907|-0.25407|-0.23907|-0.22907|-0.21407|-0.20907|-0.19407|-0.19907|-0.19907|-0.18407|-0.17407|-0.16407|-0.16907|-0.16907|-0.15407|-0.13907|-0.11907|-0.10907|-0.10407|-0.094065|-0.079065|-0.059065|-0.044065|-0.059065|-0.059065|-0.044065|-0.024065|-0.014065|0.0059346|0.0059346|0.010935|0.0059346|0.010935|0.040935|0.065935|0.070935|0.050935|0.050935|0.075935|0.10093|0.12593|0.13593|0.13593|0.12593|0.13593|0.16593|0.16593|0.18093|0.16593|0.17093|0.16093|0.17093|0.19593|0.19093|0.20593|0.19593|0.21093|0.22593|0.23593|0.24093|0.24093|0.24093|0.24593|0.26093|0.27593|0.28093|0.26093|0.24593|0.23593|0.27093|0.28093|0.28093|0.27093|0.26093|0.27593|0.27593|0.29093|0.28093|0.29093|0.29093|0.28593|0.30593|0.31093|0.31593|0.31093|0.30093|0.30093|0.31593|0.31593|0.31093|0.28593|0.27093|0.27593|0.29593|0.32093|0.31593|0.30093|0.29093|0.28593|0.30593|0.31593|0.31593|0.30593|0.30093|0.30093|0.31093|0.31093|0.29093|0.28093|0.26593|0.26093|0.25093|0.26593|0.27093|0.26593|0.24593|0.24093|0.23593|0.26093|0.25093|0.23093|0.22593|0.22093|0.21093|0.21093|0.20593|0.18593|0.18093|0.18093|0.18593|0.18093|0.16093|0.14093|0.14093|0.12593|0.12593|0.12093|0.11093|0.095935|0.10093|0.090935|0.10593|0.11093|0.095935|0.070935|0.060935|0.065935|0.075935|0.085935|0.070935|0.050935|0.025935|0.030935|0.050935|0.065935|0.055935|0.035935|0.010935|0.00093457|0.035935|0.045935|0.065935|0.055935|0.035935|0.030935|0.060935|0.085935|
-0.14907|-0.14907|-0.15407|-0.15907|-0.15407|-0.15407|-0.17907|-0.18907|-0.16407|-0.15907|-0.15907|-0.16407|-0.17407|-0.16907|-0.15407|-0.15907|-0.15407|-0.16407|-0.16907|-0.18407|-0.16407|-0.14907|-0.13907|-0.13907|-0.15407|-0.16407|-0.15407|-0.14407|-0.12907|-0.13407|-0.14407|-0.15907|-0.15407|-0.13407|-0.11407|-0.13407|-0.15407|-0.15907|-0.14907|-0.11907|-0.11907|-0.13407|-0.13907|-0.10907|-0.11907|-0.11907|-0.099065|-0.10407|-0.11407|-0.12407|-0.11407|-0.11407|-0.10907|-0.10907|-0.12407|-0.11907|-0.11407|-0.084065|-0.084065|-0.11407|-0.094065|-0.094065|-0.074065|-0.054065|-0.044065|-0.059065|-0.074065|-0.059065|-0.059065|-0.034065|-0.029065|-0.014065|-0.019065|-0.044065|-0.054065|-0.064065|-0.074065|-0.089065|-0.10907|-0.11407|-0.14407|-0.16907|-0.18407|-0.22407|-0.28407|-0.33907|-0.42407|-0.48907|-0.55907|-0.62907|-0.72407|-0.80907|-0.87407|-0.98907|-1.1491|-1.2791|-1.2941|-1.2591|-1.1941|-1.1341|-1.0441|-0.92407|-0.80907|-0.72907|-0.65407|-0.59407|-0.52407|-0.45407|-0.41907|-0.39907|-0.35407|-0.29907|-0.25907|-0.18907|-0.12407|-0.049065|0.010935|0.065935|0.080935|0.080935|0.070935|0.070935|0.090935|0.10093|0.10093|0.12593|0.13093|0.12593|0.12593|0.13593|0.15093|0.16593|0.17093|0.17093|0.18093|0.18093|0.19093|0.19093|0.17593|0.18593|0.19593|0.19593|0.20093|0.20593|0.22093|0.25593|0.26593|0.26593|0.28093|0.29093|0.29593|0.31093|0.34093|0.36593|0.37593|0.37093|0.36593|0.37093|0.40093|0.41093|0.40093|0.41593|0.41093|0.43093|0.46093|0.48593|0.50093|0.49093|0.48593|0.51593|0.54093|0.56093|0.58093|0.58093|0.58093|0.58593|0.61593|0.62593|0.63593|0.61593|0.60593|0.60593|0.63593|0.66093|0.65593|0.66093|0.66593|0.67093|0.68593|0.70093|0.72093|0.71093|0.70593|0.69593|0.70093|0.73093|0.74093|0.74093|0.73593|0.72593|0.74093|0.75093|0.75593|0.73593|0.72093|0.73093|0.73093|0.74593|0.75093|0.75093|0.74093|0.74593|0.74093|0.75093|0.77093|0.76093|0.73093|0.73593|0.75093|0.75093|0.75593|0.74093|0.70593|0.70093|0.70093|0.70593|0.70093|0.71593|0.70093|0.68593|0.68093|0.69093|0.69593|0.69593|0.67093|0.64593|0.65093|0.65593|0.65593|0.64593|0.62093|0.61593|0.61593|0.62093|0.61093|0.59093|0.58093|0.56593|0.54593|0.56593|0.56593|0.54593|0.53093|0.52593|0.53093|0.51593|0.50593|0.47093|0.44593|0.44093|0.44593|0.43093|0.41093|0.39093|0.36093|0.34093|0.35093|0.34093|0.34093|0.31593|0.30093|0.28093|0.26593|0.26093|0.26593|0.24093|0.22093|0.20593|0.21593|0.20093|0.21093|0.18593|0.15093|0.15093|0.15093|0.15593|0.14093|0.13093|0.11593|0.090935|0.11093|0.11593|0.13593|0.12593|0.095935|0.10093|0.10593|0.10593|0.10093|0.10093|
0.070935|0.090935|0.090935|0.090935|0.090935|0.085935|0.075935|0.080935|0.085935|0.075935|0.065935|0.060935|0.040935|0.035935|0.055935|0.050935|0.055935|0.060935|0.055935|0.065935|0.075935|0.065935|0.045935|0.060935|0.050935|0.060935|0.070935|0.075935|0.055935|0.055935|0.050935|0.055935|0.060935|0.055935|0.035935|0.030935|0.030935|0.035935|0.050935|0.065935|0.050935|0.050935|0.040935|0.055935|0.070935|0.070935|0.070935|0.050935|0.050935|0.055935|0.055935|0.070935|0.050935|0.040935|0.025935|0.040935|0.035935|0.045935|0.035935|0.035935|0.015935|0.045935|0.050935|0.070935|0.060935|0.055935|0.055935|0.070935|0.080935|0.075935|0.095935|0.080935|0.080935|0.090935|0.090935|0.10093|0.065935|0.025935|-0.0040654|0.00093457|-0.024065|-0.049065|-0.079065|-0.10907|-0.18907|-0.24907|-0.32907|-0.40907|-0.48907|-0.59407|-0.69407|-0.79907|-0.91407|-1.0991|-1.2241|-1.2691|-1.2591|-1.2091|-1.1441|-1.0491|-0.95407|-0.86407|-0.76407|-0.67407|-0.59907|-0.52407|-0.46907|-0.41407|-0.37907|-0.32907|-0.25407|-0.18407|-0.12407|-0.069065|-0.0090654|0.045935|0.080935|0.095935|0.080935|0.085935|0.095935|0.10093|0.11593|0.12593|0.11593|0.11593|0.11093|0.12093|0.12593|0.14593|0.14093|0.13593|0.13593|0.15593|0.15593|0.16593|0.16093|0.15093|0.15093|0.17093|0.19093|0.20093|0.19593|0.19593|0.20093|0.22593|0.23593|0.24593|0.24593|0.24093|0.24093|0.26593|0.28593|0.29093|0.28593|0.27593|0.28093|0.29093|0.32093|0.31593|0.32093|0.32593|0.34093|0.36093|0.37093|0.39093|0.37593|0.37593|0.37093|0.39093|0.42593|0.42093|0.42593|0.41593|0.42093|0.43593|0.44093|0.45093|0.44593|0.43093|0.43593|0.45093|0.48093|0.48093|0.48093|0.48593|0.49093|0.51093|0.51593|0.52093|0.51593|0.49593|0.49593|0.50093|0.51593|0.52093|0.50593|0.48593|0.49593|0.50093|0.51093|0.51593|0.51093|0.51093|0.49593|0.50593|0.51593|0.52593|0.50093|0.49093|0.48593|0.49593|0.49093|0.49593|0.48093|0.46593|0.44593|0.45093|0.46093|0.46593|0.44593|0.43593|0.42593|0.43093|0.43593|0.44093|0.42593|0.40593|0.39093|0.39093|0.41093|0.39593|0.37093|0.35593|0.34593|0.35093|0.35593|0.32593|0.32093|0.31093|0.30593|0.30093|0.30593|0.30593|0.29093|0.27593|0.26093|0.26093|0.27093|0.25093|0.24593|0.22593|0.21093|0.21593|0.20593|0.19593|0.18093|0.15593|0.13093|0.13593|0.13093|0.12093|0.10093|0.090935|0.055935|0.070935|0.075935|0.060935|0.040935|0.025935|0.010935|0.010935|0.0059346|0.010935|-0.014065|-0.039065|-0.054065|-0.054065|-0.059065|-0.074065|-0.074065|-0.099065|-0.10407|-0.094065|-0.094065|-0.099065|-0.11407|-0.12407|-0.12907|-0.12407|-0.12407|-0.11407|-0.13907|-0.14407|-0.14907|-0.15407|-0.15407|-0.15407|-0.16907|-0.17907|
-0.17407|-0.16407|-0.17407|-0.17407|-0.18907|-0.20907|-0.20407|-0.17907|-0.18907|-0.18407|-0.19907|-0.20907|-0.20407|-0.19907|-0.21407|-0.22907|-0.24907|-0.24907|-0.24407|-0.23407|-0.22907|-0.23407|-0.24907|-0.25907|-0.22907|-0.21407|-0.22407|-0.23907|-0.24407|-0.24907|-0.24907|-0.22907|-0.23407|-0.24907|-0.25907|-0.26407|-0.25407|-0.24907|-0.25407|-0.25907|-0.26407|-0.25907|-0.23907|-0.23407|-0.23407|-0.25907|-0.24907|-0.25907|-0.25407|-0.24907|-0.24407|-0.25407|-0.25407|-0.26407|-0.26407|-0.25907|-0.24407|-0.25407|-0.26407|-0.26407|-0.24907|-0.23907|-0.23407|-0.24407|-0.24907|-0.25907|-0.24907|-0.22907|-0.23407|-0.23407|-0.23407|-0.23907|-0.23407|-0.20907|-0.21407|-0.21907|-0.25407|-0.27407|-0.28907|-0.29907|-0.29907|-0.34407|-0.37907|-0.40407|-0.44407|-0.50407|-0.61407|-0.68907|-0.79407|-0.88907|-0.97407|-1.0741|-1.2141|-1.3841|-1.5141|-1.5441|-1.4891|-1.4091|-1.3241|-1.2391|-1.1391|-1.0491|-0.91907|-0.83407|-0.77407|-0.72407|-0.66407|-0.62407|-0.57407|-0.51407|-0.43407|-0.37907|-0.31407|-0.27407|-0.20407|-0.16907|-0.14907|-0.14407|-0.14407|-0.13407|-0.12407|-0.094065|-0.10407|-0.11407|-0.10407|-0.099065|-0.10407|-0.079065|-0.064065|-0.069065|-0.069065|-0.084065|-0.069065|-0.059065|-0.054065|-0.059065|-0.059065|-0.059065|-0.034065|-0.014065|-0.0040654|0.00093457|0.00093457|-0.0040654|0.0059346|0.040935|0.045935|0.045935|0.035935|0.035935|0.060935|0.080935|0.090935|0.080935|0.080935|0.090935|0.10093|0.11593|0.12593|0.12093|0.12093|0.14593|0.16593|0.18593|0.19593|0.19093|0.19593|0.20093|0.21593|0.22593|0.24093|0.23593|0.23593|0.23093|0.24093|0.26593|0.26593|0.27093|0.27093|0.28093|0.29093|0.30093|0.32093|0.31093|0.31093|0.29593|0.30593|0.33593|0.34593|0.33593|0.33093|0.32593|0.33093|0.34593|0.35593|0.35093|0.34093|0.32593|0.34093|0.34593|0.36093|0.35093|0.34093|0.33593|0.34593|0.35593|0.34593|0.34093|0.33093|0.32093|0.33593|0.34093|0.33593|0.30593|0.28593|0.28593|0.29093|0.32093|0.30593|0.29093|0.29093|0.27593|0.28593|0.29593|0.28593|0.28593|0.26593|0.25593|0.25593|0.26593|0.26093|0.24093|0.22093|0.20093|0.21593|0.21093|0.20593|0.19093|0.18593|0.18593|0.17093|0.17593|0.15093|0.13093|0.13593|0.12093|0.11093|0.12093|0.10093|0.090935|0.070935|0.050935|0.040935|0.035935|0.020935|0.00093457|-0.024065|-0.044065|-0.019065|-0.014065|-0.034065|-0.044065|-0.059065|-0.074065|-0.074065|-0.079065|-0.089065|-0.10907|-0.13407|-0.13907|-0.13407|-0.13407|-0.14407|-0.16907|-0.17407|-0.18407|-0.17907|-0.17407|-0.18907|-0.18907|-0.19407|-0.20907|-0.19407|-0.19407|-0.20407|-0.22907|-0.22407|-0.22907|-0.22907|-0.20907|-0.21407|-0.22907|-0.23907|-0.24907|-0.23407|-0.21907|-0.21907|-0.22407|-0.23407|-0.23907|
-0.21407|-0.21407|-0.20907|-0.20407|-0.23407|-0.23907|-0.23407|-0.23407|-0.20907|-0.21407|-0.22907|-0.23907|-0.23407|-0.22907|-0.21907|-0.22407|-0.23907|-0.25907|-0.26907|-0.25907|-0.24907|-0.25407|-0.26907|-0.27407|-0.27407|-0.25907|-0.24907|-0.25407|-0.25907|-0.26907|-0.26907|-0.25407|-0.24407|-0.24907|-0.24907|-0.25907|-0.25907|-0.25407|-0.24907|-0.24907|-0.26407|-0.28407|-0.28407|-0.26907|-0.25407|-0.24907|-0.26407|-0.25907|-0.26407|-0.25407|-0.23907|-0.22907|-0.24907|-0.25907|-0.26407|-0.25407|-0.24907|-0.24407|-0.25407|-0.25407|-0.24907|-0.26407|-0.23907|-0.23407|-0.22907|-0.23907|-0.22407|-0.22407|-0.20907|-0.20907|-0.20907|-0.21907|-0.20907|-0.19907|-0.17907|-0.17907|-0.22407|-0.25407|-0.27907|-0.28407|-0.28907|-0.31907|-0.35407|-0.38907|-0.44407|-0.51407|-0.57907|-0.67407|-0.75407|-0.83907|-0.94907|-1.0241|-1.1291|-1.2791|-1.4341|-1.4741|-1.4541|-1.3891|-1.3091|-1.2491|-1.1391|-1.0391|-0.94407|-0.86407|-0.78407|-0.71407|-0.66907|-0.61407|-0.56907|-0.52407|-0.43907|-0.37907|-0.33907|-0.27407|-0.21407|-0.15407|-0.11907|-0.094065|-0.11407|-0.11407|-0.10407|-0.089065|-0.064065|-0.054065|-0.049065|-0.079065|-0.064065|-0.049065|-0.014065|-0.019065|-0.019065|-0.029065|-0.019065|-0.019065|-0.0040654|-0.014065|-0.019065|-0.024065|-0.024065|0.010935|0.010935|0.040935|0.035935|0.035935|0.055935|0.065935|0.090935|0.085935|0.085935|0.080935|0.085935|0.12093|0.13593|0.13593|0.13593|0.14593|0.14093|0.15593|0.18093|0.18593|0.20093|0.21593|0.22093|0.23093|0.25093|0.26093|0.25593|0.25093|0.26093|0.29093|0.31593|0.32093|0.31593|0.30593|0.31593|0.33593|0.35593|0.37093|0.36093|0.35593|0.36093|0.37593|0.40093|0.40593|0.40593|0.42093|0.42093|0.43593|0.43593|0.44093|0.42593|0.42593|0.42593|0.45093|0.45593|0.45593|0.46093|0.45093|0.45093|0.45593|0.45593|0.45093|0.46093|0.45093|0.44093|0.45093|0.47093|0.46593|0.46093|0.44593|0.44593|0.44593|0.45593|0.45093|0.44093|0.41093|0.42593|0.42093|0.43593|0.43093|0.40593|0.39593|0.38593|0.40593|0.40593|0.40593|0.39593|0.38093|0.37093|0.37093|0.36593|0.37593|0.35093|0.34593|0.33093|0.33593|0.33593|0.32593|0.31093|0.29093|0.28593|0.29093|0.28593|0.28593|0.28593|0.26593|0.26093|0.25593|0.24593|0.23593|0.22593|0.20593|0.20093|0.20593|0.20093|0.19093|0.17093|0.14593|0.13093|0.13593|0.13593|0.12593|0.095935|0.085935|0.085935|0.075935|0.080935|0.060935|0.045935|0.045935|0.030935|0.035935|0.035935|0.010935|-0.0040654|-0.0090654|-0.029065|-0.024065|-0.034065|-0.029065|-0.054065|-0.064065|-0.074065|-0.064065|-0.064065|-0.069065|-0.069065|-0.079065|-0.084065|-0.079065|-0.069065|-0.069065|-0.074065|-0.10407|-0.10407|-0.074065|-0.074065|-0.074065|-0.084065|-0.11907|
-0.13407|-0.14407|-0.15907|-0.16407|-0.17407|-0.15407|-0.15407|-0.15907|-0.17907|-0.19407|-0.20407|-0.18907|-0.17907|-0.18407|-0.19407|-0.20907|-0.18407|-0.18907|-0.17407|-0.17907|-0.18407|-0.17907|-0.18907|-0.18407|-0.16907|-0.17407|-0.18907|-0.18407|-0.17907|-0.17907|-0.16907|-0.17907|-0.18907|-0.18907|-0.18407|-0.18907|-0.16907|-0.19407|-0.18907|-0.19407|-0.18907|-0.16907|-0.15907|-0.16907|-0.17407|-0.17907|-0.19907|-0.16407|-0.15907|-0.15407|-0.17907|-0.17907|-0.18907|-0.16907|-0.16407|-0.16407|-0.18407|-0.17907|-0.17407|-0.15907|-0.15407|-0.13907|-0.14907|-0.16407|-0.16907|-0.15907|-0.13407|-0.15907|-0.13407|-0.12907|-0.13407|-0.13407|-0.10907|-0.12407|-0.15907|-0.17907|-0.20407|-0.19907|-0.20407|-0.21907|-0.26407|-0.28407|-0.30907|-0.34907|-0.39407|-0.47907|-0.55907|-0.62407|-0.68407|-0.77407|-0.85407|-0.97407|-1.1191|-1.2641|-1.3591|-1.3541|-1.3241|-1.2741|-1.2091|-1.1341|-1.0291|-0.91907|-0.83907|-0.76907|-0.71907|-0.67407|-0.61407|-0.54907|-0.49407|-0.45907|-0.42907|-0.37407|-0.30407|-0.23407|-0.17407|-0.12907|-0.10407|-0.10407|-0.089065|-0.084065|-0.069065|-0.059065|-0.064065|-0.059065|-0.054065|-0.024065|-0.019065|-0.019065|-0.014065|-0.019065|-0.019065|0.00093457|0.020935|0.025935|0.015935|0.010935|0.015935|0.025935|0.035935|0.040935|0.020935|0.025935|0.040935|0.060935|0.075935|0.085935|0.080935|0.080935|0.10093|0.10593|0.11593|0.12593|0.12593|0.11093|0.13093|0.15593|0.17093|0.15593|0.16093|0.16593|0.17093|0.19093|0.20593|0.20593|0.21093|0.21093|0.23093|0.25093|0.26593|0.27093|0.26593|0.27593|0.29093|0.29593|0.30593|0.33093|0.32593|0.31093|0.32593|0.35093|0.36093|0.35093|0.35593|0.35093|0.37093|0.38593|0.37593|0.39093|0.40093|0.40593|0.40593|0.43093|0.44593|0.44593|0.45593|0.45093|0.46093|0.47093|0.47593|0.48093|0.47593|0.47093|0.47593|0.48093|0.48093|0.47093|0.48093|0.47593|0.47593|0.49593|0.49593|0.50593|0.49093|0.47593|0.48593|0.50093|0.49593|0.49593|0.47593|0.47093|0.48093|0.46593|0.47593|0.46093|0.43093|0.41593|0.43593|0.45093|0.46093|0.43593|0.42593|0.42593|0.44093|0.45093|0.44593|0.44093|0.43093|0.42093|0.41593|0.44093|0.44593|0.44593|0.42593|0.42593|0.41093|0.41593|0.41593|0.40593|0.39593|0.38593|0.39593|0.40593|0.42093|0.40593|0.39593|0.38593|0.39593|0.39093|0.40593|0.38093|0.38093|0.37593|0.38593|0.40093|0.40593|0.38593|0.35093|0.36593|0.37093|0.36093|0.37093|0.35593|0.36093|0.36593|0.37093|0.38093|0.39593|0.37093|0.35093|0.36093|0.35093|0.34593|0.34093|0.34093|0.32593|0.31093|0.30593|0.30593|0.30593|0.29093|0.26593|0.26093|0.25593|0.24093|0.25593|0.24093|0.22593|0.22093|0.22093|0.20093|
-0.094065|-0.094065|-0.099065|-0.084065|-0.079065|-0.084065|-0.089065|-0.089065|-0.089065|-0.084065|-0.059065|-0.079065|-0.079065|-0.11407|-0.10407|-0.11907|-0.099065|-0.094065|-0.099065|-0.099065|-0.11407|-0.089065|-0.084065|-0.094065|-0.10407|-0.12407|-0.10907|-0.099065|-0.084065|-0.084065|-0.089065|-0.10407|-0.094065|-0.089065|-0.074065|-0.079065|-0.089065|-0.10407|-0.099065|-0.099065|-0.094065|-0.10407|-0.11907|-0.11907|-0.12907|-0.10907|-0.099065|-0.094065|-0.10407|-0.099065|-0.10407|-0.094065|-0.089065|-0.094065|-0.089065|-0.094065|-0.10407|-0.084065|-0.084065|-0.094065|-0.094065|-0.10407|-0.10907|-0.094065|-0.074065|-0.084065|-0.089065|-0.089065|-0.099065|-0.079065|-0.039065|-0.054065|-0.064065|-0.059065|-0.049065|-0.044065|-0.049065|-0.064065|-0.094065|-0.12407|-0.14907|-0.14907|-0.16407|-0.18907|-0.23907|-0.31907|-0.39907|-0.48907|-0.55907|-0.64407|-0.72907|-0.82407|-0.92407|-1.0691|-1.2091|-1.2791|-1.2991|-1.2341|-1.1641|-1.0841|-0.99407|-0.88907|-0.80907|-0.73907|-0.69407|-0.59407|-0.52407|-0.46407|-0.43907|-0.40407|-0.36407|-0.30907|-0.23407|-0.16907|-0.11907|-0.074065|-0.034065|-0.019065|0.010935|0.010935|0.0059346|0.010935|0.020935|0.030935|0.040935|0.040935|0.035935|0.040935|0.045935|0.065935|0.075935|0.080935|0.070935|0.075935|0.085935|0.095935|0.10593|0.11593|0.10593|0.095935|0.095935|0.11593|0.12093|0.14093|0.13093|0.13093|0.13093|0.14593|0.17593|0.18593|0.18093|0.17093|0.18093|0.19093|0.22093|0.22593|0.22093|0.21593|0.23093|0.24093|0.24093|0.24593|0.24593|0.24593|0.26593|0.28593|0.29593|0.30093|0.30093|0.31093|0.30593|0.34093|0.35093|0.36093|0.35593|0.35593|0.36093|0.38593|0.40093|0.40593|0.39593|0.37593|0.38593|0.40093|0.42593|0.42093|0.42093|0.42593|0.42593|0.44593|0.46093|0.47093|0.46093|0.45593|0.46593|0.47093|0.48593|0.48093|0.47593|0.46593|0.46093|0.49093|0.47593|0.46593|0.46093|0.45593|0.45593|0.47093|0.48093|0.47593|0.45093|0.45093|0.44593|0.46593|0.47093|0.46093|0.45593|0.44093|0.43593|0.44593|0.44593|0.44093|0.41093|0.39593|0.40593|0.41093|0.41593|0.40593|0.39093|0.38593|0.37093|0.37093|0.38093|0.38093|0.35593|0.35093|0.35593|0.36093|0.37093|0.37093|0.34593|0.33593|0.33593|0.31093|0.29593|0.31093|0.28593|0.27593|0.27593|0.27593|0.29093|0.26593|0.26593|0.23593|0.24593|0.24593|0.24093|0.23593|0.22093|0.19593|0.20593|0.21093|0.20593|0.19093|0.17593|0.15593|0.15093|0.14593|0.14593|0.14593|0.13093|0.11093|0.11093|0.10593|0.12093|0.11093|0.090935|0.085935|0.075935|0.090935|0.090935|0.080935|0.060935|0.050935|0.045935|0.045935|0.050935|0.040935|0.020935|0.020935|0.025935|0.030935|0.040935|0.045935|0.020935|0.015935|0.010935|0.030935|0.035935|0.030935|
-0.059065|-0.074065|-0.074065|-0.059065|-0.064065|-0.044065|-0.044065|-0.049065|-0.064065|-0.069065|-0.064065|-0.064065|-0.079065|-0.094065|-0.10407|-0.084065|-0.074065|-0.054065|-0.069065|-0.084065|-0.099065|-0.10407|-0.10407|-0.089065|-0.084065|-0.094065|-0.10907|-0.12907|-0.11907|-0.11907|-0.11407|-0.11407|-0.12907|-0.12907|-0.10907|-0.10407|-0.099065|-0.10907|-0.12407|-0.11407|-0.099065|-0.094065|-0.099065|-0.10907|-0.11907|-0.11907|-0.10407|-0.099065|-0.10407|-0.11907|-0.10907|-0.12407|-0.12907|-0.089065|-0.099065|-0.10407|-0.10907|-0.094065|-0.084065|-0.074065|-0.074065|-0.094065|-0.10907|-0.094065|-0.089065|-0.079065|-0.089065|-0.089065|-0.094065|-0.089065|-0.064065|-0.059065|-0.059065|-0.059065|-0.064065|-0.054065|-0.064065|-0.069065|-0.089065|-0.11407|-0.13907|-0.16407|-0.18907|-0.21407|-0.25907|-0.34407|-0.44407|-0.55407|-0.61407|-0.66907|-0.76907|-0.87407|-1.0091|-1.1591|-1.3191|-1.3741|-1.3641|-1.3041|-1.2391|-1.1391|-1.0191|-0.89407|-0.78907|-0.71907|-0.66407|-0.59407|-0.51907|-0.44907|-0.41907|-0.36407|-0.31407|-0.23407|-0.14907|-0.084065|-0.029065|-0.0090654|-0.0040654|0.010935|0.040935|0.045935|0.060935|0.045935|0.045935|0.030935|0.060935|0.075935|0.080935|0.055935|0.050935|0.070935|0.065935|0.10093|0.095935|0.10093|0.10093|0.11093|0.14093|0.15093|0.16093|0.15093|0.14593|0.15593|0.16593|0.18593|0.17593|0.18593|0.17593|0.18093|0.20593|0.22093|0.22593|0.22093|0.22093|0.23593|0.26593|0.26593|0.26593|0.28093|0.28593|0.29093|0.30593|0.32593|0.33593|0.33093|0.31093|0.32093|0.33593|0.35093|0.36093|0.36093|0.36093|0.37093|0.38593|0.40593|0.40093|0.41093|0.41593|0.41593|0.43593|0.46093|0.44593|0.45093|0.46593|0.45093|0.46593|0.46593|0.48093|0.47093|0.46593|0.48093|0.49093|0.51093|0.50093|0.50593|0.49593|0.50593|0.52093|0.53093|0.53093|0.52093|0.51593|0.52593|0.53593|0.53593|0.53093|0.52093|0.49593|0.50093|0.51593|0.52093|0.50093|0.49093|0.48593|0.49093|0.49593|0.49593|0.51593|0.50093|0.49593|0.49593|0.50093|0.50593|0.50093|0.48593|0.48093|0.47593|0.47593|0.47093|0.47093|0.46593|0.44593|0.45093|0.46093|0.45593|0.45593|0.44593|0.43093|0.45593|0.45593|0.45593|0.46593|0.45093|0.44093|0.44093|0.44593|0.44593|0.43593|0.42593|0.40593|0.41093|0.41593|0.43593|0.43093|0.42593|0.41093|0.41093|0.41593|0.42093|0.42093|0.41093|0.38593|0.39593|0.40093|0.39593|0.37593|0.36093|0.36593|0.36093|0.36093|0.36593|0.35593|0.33093|0.32593|0.32093|0.32593|0.32093|0.34093|0.33093|0.32593|0.32593|0.34093|0.34093|0.33093|0.30593|0.29593|0.29093|0.29093|0.28593|0.28093|0.26593|0.27093|0.26093|0.26593|0.26593|0.26093|0.25093|0.24593|0.25593|0.27093|0.27093|
0.00093457|-0.0040654|0.00093457|-0.014065|-0.024065|-0.024065|-0.0090654|0.010935|-0.0040654|-0.029065|-0.034065|-0.049065|-0.029065|-0.024065|-0.024065|-0.049065|-0.059065|-0.059065|-0.054065|-0.034065|-0.049065|-0.039065|-0.029065|-0.054065|-0.029065|-0.024065|-0.024065|-0.034065|-0.049065|-0.064065|-0.034065|-0.024065|-0.024065|-0.049065|-0.049065|-0.049065|-0.039065|-0.029065|-0.024065|-0.034065|-0.044065|-0.049065|-0.024065|-0.019065|-0.024065|-0.039065|-0.054065|-0.039065|-0.044065|-0.024065|-0.029065|-0.049065|-0.059065|-0.049065|-0.039065|-0.029065|-0.039065|-0.039065|-0.034065|-0.039065|-0.039065|-0.029065|-0.024065|-0.019065|-0.029065|-0.034065|-0.024065|-0.024065|-0.014065|-0.034065|-0.029065|-0.029065|-0.0090654|0.010935|0.0059346|0.020935|0.0059346|-0.0090654|-0.024065|-0.024065|-0.054065|-0.069065|-0.10407|-0.14407|-0.16907|-0.19407|-0.26907|-0.40407|-0.52907|-0.61907|-0.68407|-0.76407|-0.88407|-1.0441|-1.2141|-1.3391|-1.3691|-1.3141|-1.2241|-1.1391|-1.0391|-0.91407|-0.78907|-0.68407|-0.60407|-0.55407|-0.49407|-0.44907|-0.40907|-0.35407|-0.29907|-0.22407|-0.18907|-0.11907|-0.024065|0.030935|0.050935|0.060935|0.045935|0.055935|0.075935|0.095935|0.10593|0.10593|0.080935|0.080935|0.085935|0.12093|0.12093|0.11093|0.10593|0.10593|0.12593|0.14593|0.13593|0.14593|0.13093|0.15093|0.16093|0.18093|0.17593|0.17093|0.18593|0.18593|0.21093|0.22093|0.21593|0.22093|0.20093|0.20593|0.22093|0.24593|0.24593|0.24593|0.24593|0.24593|0.26093|0.28093|0.28593|0.28593|0.29093|0.30093|0.32593|0.34593|0.35093|0.35093|0.34593|0.35593|0.37093|0.38593|0.37593|0.38093|0.38593|0.39093|0.41593|0.43093|0.43593|0.42593|0.42593|0.42593|0.43093|0.46093|0.45093|0.46593|0.45093|0.46093|0.48593|0.49593|0.50093|0.48593|0.47593|0.47093|0.49093|0.51093|0.50093|0.48593|0.48593|0.46593|0.49593|0.51093|0.51093|0.50593|0.48593|0.47093|0.50093|0.50593|0.51093|0.49093|0.48093|0.46593|0.48093|0.49093|0.46093|0.46593|0.43593|0.44093|0.46093|0.46093|0.45593|0.42593|0.41593|0.41593|0.42093|0.44593|0.43593|0.41093|0.41093|0.39593|0.40093|0.39093|0.38093|0.35593|0.32593|0.33593|0.34093|0.35593|0.34093|0.31093|0.30593|0.28593|0.30593|0.30093|0.29593|0.28593|0.27093|0.26093|0.28093|0.27093|0.26093|0.25093|0.22593|0.22093|0.22593|0.22093|0.22093|0.19593|0.18593|0.16593|0.18093|0.19093|0.16593|0.15593|0.15093|0.13093|0.14093|0.15593|0.14093|0.13093|0.11093|0.10093|0.10093|0.11093|0.080935|0.065935|0.050935|0.045935|0.050935|0.050935|0.045935|0.030935|0.015935|0.010935|0.025935|0.020935|0.015935|0.0059346|0.00093457|-0.0040654|-0.014065|0.00093457|-0.019065|-0.034065|-0.054065|-0.064065|-0.059065|-0.044065|-0.044065|-0.054065|-0.064065|-0.064065|
-0.034065|-0.029065|-0.039065|-0.049065|-0.069065|-0.069065|-0.069065|-0.069065|-0.054065|-0.074065|-0.064065|-0.069065|-0.044065|-0.039065|-0.044065|-0.059065|-0.079065|-0.089065|-0.074065|-0.064065|-0.084065|-0.084065|-0.089065|-0.10907|-0.074065|-0.064065|-0.079065|-0.089065|-0.099065|-0.094065|-0.089065|-0.074065|-0.074065|-0.084065|-0.089065|-0.084065|-0.089065|-0.074065|-0.074065|-0.089065|-0.094065|-0.10907|-0.10407|-0.089065|-0.094065|-0.10907|-0.10907|-0.11407|-0.11407|-0.089065|-0.089065|-0.10907|-0.10907|-0.099065|-0.099065|-0.074065|-0.079065|-0.094065|-0.11407|-0.10407|-0.099065|-0.094065|-0.099065|-0.10907|-0.10907|-0.11907|-0.10907|-0.10407|-0.084065|-0.099065|-0.099065|-0.099065|-0.089065|-0.064065|-0.074065|-0.049065|-0.059065|-0.059065|-0.074065|-0.074065|-0.10907|-0.15407|-0.17407|-0.19407|-0.20907|-0.23907|-0.29407|-0.41407|-0.54907|-0.65407|-0.73407|-0.82907|-0.96907|-1.1591|-1.3491|-1.4191|-1.3691|-1.2691|-1.1741|-1.0541|-0.94907|-0.85407|-0.74407|-0.67407|-0.58907|-0.53407|-0.50907|-0.47407|-0.39407|-0.32407|-0.26407|-0.19407|-0.13407|-0.084065|-0.029065|0.00093457|-0.0090654|0.00093457|-0.019065|0.00093457|0.020935|0.035935|0.040935|0.015935|0.010935|0.025935|0.035935|0.065935|0.060935|0.045935|0.040935|0.065935|0.080935|0.085935|0.095935|0.075935|0.075935|0.080935|0.095935|0.090935|0.10093|0.10093|0.10093|0.11593|0.13593|0.15593|0.15093|0.15093|0.15593|0.15593|0.17093|0.19093|0.21093|0.20093|0.20093|0.20593|0.23093|0.23593|0.24093|0.24093|0.22593|0.24593|0.26593|0.29093|0.29593|0.29593|0.29093|0.30593|0.32593|0.34093|0.35593|0.31593|0.33593|0.34593|0.36593|0.38593|0.39093|0.37593|0.37093|0.37593|0.39093|0.40593|0.40593|0.41093|0.40093|0.40593|0.41093|0.42593|0.41593|0.39593|0.41593|0.42093|0.44593|0.46093|0.45593|0.44093|0.42593|0.40593|0.41593|0.44093|0.43093|0.41593|0.41093|0.41093|0.42593|0.42093|0.42593|0.41093|0.39093|0.39093|0.39093|0.39593|0.39593|0.38093|0.37093|0.36593|0.37093|0.37593|0.35093|0.33093|0.30593|0.30093|0.30593|0.32093|0.30593|0.29593|0.28093|0.26093|0.27093|0.28093|0.27093|0.24593|0.23593|0.24093|0.24593|0.24593|0.25093|0.22593|0.21093|0.18093|0.19093|0.19093|0.18093|0.15593|0.14593|0.14093|0.15593|0.16593|0.16593|0.14093|0.12093|0.11593|0.13093|0.13093|0.12093|0.11593|0.085935|0.070935|0.080935|0.090935|0.070935|0.045935|0.035935|0.035935|0.045935|0.045935|0.040935|0.020935|0.010935|0.00093457|0.010935|0.015935|0.015935|-0.0090654|-0.014065|-0.024065|-0.024065|-0.0040654|-0.039065|-0.039065|-0.059065|-0.064065|-0.069065|-0.054065|-0.069065|-0.074065|-0.089065|-0.084065|-0.089065|-0.089065|-0.089065|-0.10907|-0.11907|-0.11407|-0.10407|-0.099065|-0.10907|-0.11907|-0.13407|-0.14407|
-0.16907|-0.16907|-0.16407|-0.15407|-0.16407|-0.17407|-0.17907|-0.18407|-0.18907|-0.17407|-0.18407|-0.19907|-0.21407|-0.20907|-0.19407|-0.18907|-0.18907|-0.18907|-0.19907|-0.19407|-0.18407|-0.17907|-0.18907|-0.19907|-0.21407|-0.21407|-0.20407|-0.19907|-0.21407|-0.20907|-0.21407|-0.21907|-0.22407|-0.21407|-0.21407|-0.21907|-0.22407|-0.21907|-0.20907|-0.18907|-0.19907|-0.20907|-0.22407|-0.22907|-0.21907|-0.22407|-0.22407|-0.23407|-0.24907|-0.24907|-0.23907|-0.21407|-0.20907|-0.23407|-0.22907|-0.22407|-0.21907|-0.20907|-0.20907|-0.21907|-0.21907|-0.22407|-0.21407|-0.21907|-0.20907|-0.22407|-0.22907|-0.22407|-0.21407|-0.19907|-0.19407|-0.18907|-0.19907|-0.18907|-0.17407|-0.17407|-0.18407|-0.23407|-0.24907|-0.25407|-0.26407|-0.28407|-0.31407|-0.34907|-0.40407|-0.49407|-0.60907|-0.68907|-0.77407|-0.84907|-0.91907|-1.0191|-1.1041|-1.2591|-1.4091|-1.5241|-1.5391|-1.4791|-1.3791|-1.2791|-1.1891|-1.0891|-0.99407|-0.91907|-0.83407|-0.75407|-0.69907|-0.66907|-0.64907|-0.60407|-0.55407|-0.48907|-0.41407|-0.34907|-0.29407|-0.24407|-0.17907|-0.13407|-0.12907|-0.12907|-0.12907|-0.11407|-0.099065|-0.089065|-0.084065|-0.099065|-0.10407|-0.10907|-0.099065|-0.074065|-0.074065|-0.074065|-0.094065|-0.089065|-0.069065|-0.044065|-0.049065|-0.054065|-0.054065|-0.049065|-0.024065|-0.014065|-0.0040654|-0.024065|-0.014065|-0.0040654|-0.0040654|-0.0090654|0.00093457|0.0059346|-0.0040654|0.0059346|0.00093457|0.040935|0.040935|0.035935|0.030935|0.045935|0.060935|0.080935|0.085935|0.090935|0.095935|0.090935|0.12093|0.12093|0.12593|0.14093|0.14093|0.14593|0.14593|0.16093|0.17093|0.17093|0.16593|0.17593|0.19093|0.20593|0.20593|0.21093|0.20593|0.21593|0.23093|0.25093|0.26593|0.25093|0.24593|0.25593|0.27593|0.29093|0.28593|0.27593|0.26093|0.27593|0.28593|0.30593|0.29093|0.27593|0.28093|0.28593|0.30593|0.31593|0.31093|0.30593|0.30093|0.30593|0.30593|0.32093|0.31593|0.30593|0.30093|0.30093|0.30093|0.30093|0.28593|0.26593|0.25593|0.25093|0.25093|0.26093|0.25093|0.23093|0.24093|0.23593|0.24093|0.23593|0.23093|0.22593|0.21593|0.20593|0.22093|0.22093|0.19593|0.16593|0.15093|0.15593|0.16093|0.16593|0.16093|0.14593|0.13093|0.12093|0.13093|0.13593|0.11593|0.10593|0.10093|0.10093|0.12093|0.13093|0.11093|0.095935|0.070935|0.075935|0.080935|0.085935|0.065935|0.040935|0.040935|0.030935|0.035935|0.040935|0.030935|0.025935|0.00093457|0.00093457|0.00093457|0.00093457|0.010935|-0.019065|-0.029065|-0.029065|-0.019065|-0.0090654|-0.014065|-0.034065|-0.054065|-0.079065|-0.064065|-0.074065|-0.074065|-0.089065|-0.099065|-0.094065|-0.094065|-0.10407|-0.10907|-0.12907|-0.13907|-0.14407|-0.13407|-0.12407|-0.13407|-0.13407|-0.15407|-0.15407|-0.15907|-0.15407|-0.15407|-0.17407|
-0.18907|-0.20907|-0.18907|-0.16407|-0.17407|-0.17907|-0.17907|-0.19907|-0.19907|-0.21407|-0.19907|-0.20407|-0.22907|-0.22407|-0.21907|-0.20907|-0.20407|-0.19907|-0.20907|-0.22407|-0.20907|-0.20907|-0.19407|-0.19907|-0.19907|-0.20407|-0.20407|-0.18407|-0.18907|-0.19407|-0.21907|-0.22907|-0.21407|-0.20407|-0.18907|-0.21407|-0.21407|-0.21907|-0.20407|-0.19907|-0.17907|-0.18407|-0.19407|-0.19407|-0.18407|-0.17907|-0.17907|-0.17907|-0.18907|-0.20407|-0.19407|-0.18407|-0.18907|-0.19407|-0.20407|-0.20407|-0.20907|-0.18907|-0.17407|-0.18407|-0.19407|-0.20907|-0.19907|-0.17407|-0.15907|-0.14907|-0.16407|-0.16407|-0.14907|-0.13907|-0.13907|-0.13907|-0.14907|-0.14907|-0.15407|-0.15907|-0.15407|-0.17907|-0.20407|-0.21907|-0.24407|-0.26407|-0.27907|-0.30907|-0.36407|-0.46907|-0.56907|-0.66407|-0.72907|-0.79907|-0.91407|-1.0141|-1.1391|-1.2991|-1.4291|-1.4841|-1.4641|-1.4041|-1.3041|-1.2091|-1.1141|-1.0291|-0.93907|-0.86907|-0.79407|-0.70407|-0.63907|-0.59407|-0.56407|-0.52907|-0.47407|-0.41407|-0.32907|-0.26907|-0.21407|-0.17407|-0.12907|-0.089065|-0.069065|-0.074065|-0.079065|-0.089065|-0.074065|-0.049065|-0.039065|-0.034065|-0.044065|-0.044065|-0.024065|-0.014065|-0.0040654|-0.0040654|-0.014065|-0.014065|-0.019065|-0.0040654|0.0059346|0.00093457|0.0059346|0.010935|0.020935|0.030935|0.045935|0.055935|0.055935|0.045935|0.055935|0.065935|0.10093|0.095935|0.085935|0.090935|0.10593|0.12093|0.12093|0.11093|0.10593|0.11093|0.13593|0.15093|0.16593|0.18093|0.16593|0.15593|0.17093|0.20093|0.21593|0.21593|0.21593|0.22093|0.23093|0.24593|0.26093|0.26093|0.24593|0.24093|0.26093|0.27593|0.29093|0.29093|0.29093|0.28593|0.29093|0.31093|0.32593|0.32593|0.32093|0.31093|0.34093|0.36093|0.36593|0.36593|0.36593|0.36093|0.37093|0.38593|0.38093|0.38093|0.37093|0.36593|0.36593|0.38093|0.38093|0.38093|0.36593|0.36093|0.36093|0.36593|0.36093|0.36093|0.34093|0.35093|0.35593|0.36093|0.35093|0.34093|0.32093|0.31593|0.29593|0.31093|0.31093|0.29593|0.28093|0.29093|0.28593|0.29093|0.26593|0.26593|0.25593|0.25093|0.26093|0.26093|0.25093|0.24093|0.22593|0.21093|0.20593|0.20593|0.19593|0.19093|0.18593|0.16593|0.17093|0.17093|0.18093|0.16593|0.14593|0.14093|0.14093|0.14093|0.14093|0.13093|0.12093|0.11093|0.11093|0.10593|0.10593|0.075935|0.070935|0.055935|0.055935|0.070935|0.065935|0.045935|0.045935|0.020935|0.030935|0.025935|0.035935|0.025935|0.010935|0.00093457|0.010935|0.015935|0.015935|0.0059346|-0.014065|-0.034065|-0.029065|-0.034065|-0.034065|-0.044065|-0.054065|-0.069065|-0.074065|-0.074065|-0.064065|-0.074065|-0.094065|-0.094065|-0.089065|-0.069065|-0.084065|-0.074065|-0.084065|-0.099065|-0.10407|-0.089065|-0.094065|-0.10907|
-0.14407|-0.14907|-0.13407|-0.12907|-0.13407|-0.14907|-0.14907|-0.15407|-0.16907|-0.15407|-0.13407|-0.14907|-0.15907|-0.16907|-0.16407|-0.14907|-0.15907|-0.15907|-0.17907|-0.18907|-0.17407|-0.16907|-0.15907|-0.16907|-0.18907|-0.20407|-0.18907|-0.17907|-0.14907|-0.14907|-0.17407|-0.16907|-0.16407|-0.15907|-0.17407|-0.18407|-0.17907|-0.17907|-0.17907|-0.17407|-0.16907|-0.17907|-0.18907|-0.18907|-0.18407|-0.17407|-0.16407|-0.16407|-0.17407|-0.17407|-0.17407|-0.15907|-0.15907|-0.15407|-0.17407|-0.18407|-0.19407|-0.17407|-0.17907|-0.18407|-0.17907|-0.18907|-0.19407|-0.17407|-0.14907|-0.15907|-0.16407|-0.16907|-0.16407|-0.13907|-0.11907|-0.10407|-0.11907|-0.11907|-0.12407|-0.12907|-0.14407|-0.17407|-0.20907|-0.21907|-0.24407|-0.25907|-0.28907|-0.32407|-0.37907|-0.48907|-0.58407|-0.65407|-0.70407|-0.77407|-0.85907|-0.96907|-1.0841|-1.2141|-1.3591|-1.4491|-1.4591|-1.4091|-1.3241|-1.2241|-1.1191|-1.0041|-0.92907|-0.84407|-0.75407|-0.67907|-0.60907|-0.55907|-0.53407|-0.50907|-0.41407|-0.33407|-0.26907|-0.19907|-0.14407|-0.099065|-0.079065|-0.054065|-0.039065|-0.059065|-0.064065|-0.069065|-0.054065|-0.049065|-0.034065|-0.039065|-0.044065|-0.049065|-0.034065|-0.014065|-0.014065|-0.0090654|-0.0040654|-0.0040654|0.010935|0.0059346|0.025935|0.0059346|0.0059346|0.020935|0.020935|0.040935|0.040935|0.040935|0.025935|0.035935|0.055935|0.060935|0.075935|0.060935|0.070935|0.080935|0.095935|0.11093|0.12593|0.13093|0.13093|0.13093|0.14593|0.16093|0.16593|0.16093|0.15593|0.16093|0.16593|0.19093|0.20093|0.20593|0.19593|0.20593|0.21593|0.24093|0.24093|0.25593|0.24593|0.26093|0.27593|0.29093|0.30093|0.31093|0.30093|0.29593|0.30593|0.32093|0.33093|0.32093|0.32093|0.32593|0.34093|0.35593|0.36093|0.35093|0.34093|0.35593|0.36593|0.38093|0.39593|0.39093|0.38093|0.38593|0.39093|0.39593|0.40093|0.38593|0.37593|0.36593|0.37593|0.37093|0.38093|0.38093|0.35593|0.34593|0.37093|0.37093|0.36593|0.37593|0.36093|0.34093|0.34593|0.36093|0.35093|0.33593|0.32093|0.32093|0.31593|0.31593|0.31093|0.28093|0.25593|0.27093|0.28093|0.28593|0.27593|0.26093|0.24593|0.24593|0.25093|0.25093|0.24593|0.24093|0.21593|0.21593|0.21593|0.22593|0.22093|0.20593|0.18593|0.17093|0.18093|0.17093|0.18593|0.17093|0.15593|0.14593|0.15093|0.16593|0.16093|0.15093|0.12593|0.12093|0.12593|0.12093|0.13593|0.11593|0.095935|0.090935|0.080935|0.090935|0.080935|0.065935|0.045935|0.040935|0.040935|0.050935|0.045935|0.045935|0.015935|0.00093457|0.00093457|0.015935|0.010935|0.0059346|-0.0040654|-0.024065|-0.019065|0.00093457|0.00093457|-0.0090654|-0.044065|-0.064065|-0.039065|-0.039065|-0.044065|-0.054065|-0.069065|-0.079065|-0.074065|-0.074065|-0.074065|-0.074065|
-0.099065|-0.10407|-0.079065|-0.064065|-0.069065|-0.069065|-0.084065|-0.084065|-0.079065|-0.079065|-0.074065|-0.099065|-0.10407|-0.099065|-0.094065|-0.069065|-0.064065|-0.064065|-0.084065|-0.094065|-0.094065|-0.079065|-0.074065|-0.089065|-0.10407|-0.094065|-0.089065|-0.084065|-0.074065|-0.084065|-0.094065|-0.10407|-0.099065|-0.084065|-0.074065|-0.079065|-0.089065|-0.094065|-0.079065|-0.069065|-0.069065|-0.084065|-0.11907|-0.099065|-0.099065|-0.094065|-0.064065|-0.084065|-0.10407|-0.10407|-0.10407|-0.089065|-0.079065|-0.079065|-0.089065|-0.084065|-0.079065|-0.059065|-0.064065|-0.069065|-0.079065|-0.099065|-0.094065|-0.084065|-0.074065|-0.079065|-0.089065|-0.079065|-0.074065|-0.054065|-0.049065|-0.049065|-0.039065|-0.039065|-0.029065|-0.029065|-0.024065|-0.059065|-0.089065|-0.10407|-0.11907|-0.13407|-0.16407|-0.18907|-0.22907|-0.29407|-0.38907|-0.48407|-0.57407|-0.63407|-0.72907|-0.83407|-0.92407|-1.0591|-1.2291|-1.3341|-1.3591|-1.3041|-1.2241|-1.1241|-1.0391|-0.96407|-0.87907|-0.78907|-0.70907|-0.62907|-0.56907|-0.51907|-0.48907|-0.44907|-0.39407|-0.31907|-0.24407|-0.17407|-0.10907|-0.044065|0.010935|0.055935|0.050935|0.055935|0.055935|0.045935|0.055935|0.055935|0.055935|0.050935|0.045935|0.050935|0.065935|0.080935|0.090935|0.065935|0.080935|0.080935|0.090935|0.11593|0.12593|0.12593|0.11093|0.11593|0.13093|0.14093|0.14593|0.14093|0.12593|0.12093|0.15593|0.16093|0.17593|0.17593|0.16093|0.15593|0.18593|0.21093|0.21593|0.22093|0.22593|0.22593|0.23593|0.25593|0.27593|0.26593|0.26593|0.27093|0.27593|0.29593|0.28593|0.28593|0.29593|0.30093|0.31093|0.33593|0.34593|0.34593|0.34093|0.35593|0.36593|0.39093|0.38593|0.40593|0.39593|0.39593|0.41593|0.43093|0.43593|0.42593|0.41593|0.41593|0.43593|0.45093|0.44093|0.43093|0.44093|0.44593|0.46093|0.46593|0.47593|0.47593|0.46593|0.46593|0.47093|0.48593|0.49093|0.47593|0.46093|0.44093|0.45093|0.44593|0.44093|0.44093|0.42593|0.42593|0.43093|0.44593|0.44593|0.42093|0.41093|0.40593|0.39593|0.39593|0.40593|0.38593|0.37593|0.36593|0.36093|0.36593|0.35093|0.33593|0.32593|0.32093|0.31093|0.33093|0.32593|0.31093|0.28593|0.28093|0.29093|0.30093|0.29093|0.28093|0.26093|0.25593|0.26093|0.27593|0.26093|0.25093|0.22593|0.21093|0.21593|0.22593|0.21593|0.21093|0.20093|0.18093|0.18593|0.19593|0.20593|0.18593|0.15093|0.16093|0.16593|0.17093|0.17093|0.15593|0.12593|0.10093|0.10593|0.12593|0.12093|0.10093|0.085935|0.075935|0.090935|0.090935|0.070935|0.085935|0.065935|0.050935|0.065935|0.080935|0.055935|0.050935|0.045935|0.030935|0.030935|0.030935|0.030935|0.015935|0.020935|0.00093457|0.0059346|0.025935|0.025935|-0.0090654|-0.014065|-0.0040654|0.010935|0.010935|0.010935|0.0059346|
0.085935|0.085935|0.095935|0.10093|0.095935|0.075935|0.065935|0.065935|0.065935|0.080935|0.070935|0.060935|0.060935|0.070935|0.080935|0.090935|0.090935|0.080935|0.075935|0.080935|0.090935|0.095935|0.095935|0.080935|0.075935|0.055935|0.075935|0.075935|0.060935|0.045935|0.055935|0.060935|0.070935|0.080935|0.060935|0.065935|0.055935|0.055935|0.080935|0.065935|0.075935|0.070935|0.065935|0.070935|0.065935|0.080935|0.075935|0.055935|0.050935|0.050935|0.055935|0.055935|0.060935|0.065935|0.040935|0.050935|0.065935|0.075935|0.070935|0.070935|0.060935|0.060935|0.085935|0.085935|0.085935|0.070935|0.065935|0.065935|0.080935|0.085935|0.090935|0.090935|0.085935|0.090935|0.11093|0.11593|0.11093|0.070935|0.050935|0.040935|0.035935|0.015935|-0.019065|-0.049065|-0.089065|-0.16407|-0.27407|-0.35907|-0.44907|-0.52407|-0.61907|-0.71907|-0.82407|-0.94407|-1.1091|-1.2091|-1.2291|-1.1541|-1.0591|-0.97407|-0.87407|-0.77907|-0.68907|-0.60907|-0.52407|-0.45407|-0.40407|-0.36907|-0.33407|-0.29907|-0.23907|-0.14907|-0.089065|-0.0040654|0.055935|0.090935|0.12593|0.14093|0.14593|0.14593|0.13593|0.15593|0.17093|0.17093|0.18093|0.16593|0.16593|0.15093|0.17093|0.18593|0.19093|0.18593|0.18593|0.19093|0.19093|0.21093|0.20093|0.20093|0.20093|0.20593|0.23093|0.25093|0.26093|0.25093|0.24593|0.26093|0.26593|0.26593|0.27593|0.27093|0.25593|0.27093|0.28093|0.30093|0.31093|0.31093|0.30593|0.32093|0.33593|0.35593|0.37093|0.35593|0.37593|0.38093|0.39593|0.40093|0.40093|0.39593|0.39093|0.38593|0.40593|0.42593|0.43593|0.42593|0.43093|0.43093|0.46593|0.47593|0.48093|0.47593|0.48593|0.48093|0.49593|0.52593|0.53093|0.53093|0.52593|0.52093|0.54093|0.54593|0.53593|0.52593|0.53093|0.54093|0.55093|0.56093|0.56093|0.54593|0.53593|0.53093|0.54093|0.56093|0.56093|0.55593|0.54093|0.55093|0.55093|0.55593|0.55093|0.53093|0.51093|0.49593|0.51593|0.52593|0.51093|0.49093|0.47593|0.48593|0.49093|0.50093|0.48093|0.46593|0.45093|0.44593|0.45593|0.46593|0.44093|0.43093|0.42093|0.38593|0.38593|0.41093|0.39593|0.38093|0.36093|0.35593|0.35593|0.37093|0.36593|0.34593|0.33593|0.34093|0.34593|0.35093|0.34593|0.31093|0.30593|0.31093|0.31093|0.31593|0.28593|0.27093|0.26593|0.26593|0.26093|0.26593|0.25593|0.23593|0.23093|0.23593|0.23593|0.23593|0.23593|0.22093|0.20593|0.20593|0.20593|0.20593|0.21593|0.19093|0.17593|0.17093|0.18093|0.17593|0.16593|0.15093|0.13593|0.13093|0.14093|0.13093|0.13593|0.11593|0.095935|0.095935|0.10593|0.10593|0.10593|0.090935|0.085935|0.080935|0.090935|0.090935|0.075935|0.070935|0.050935|0.045935|0.055935|0.055935|0.060935|0.050935|
0.0059346|0.010935|0.010935|0.010935|-0.019065|-0.019065|-0.019065|-0.0090654|0.0059346|0.010935|0.010935|-0.0040654|-0.0090654|-0.0090654|0.015935|0.0059346|-0.014065|-0.0090654|-0.014065|-0.014065|-0.0090654|-0.0090654|-0.019065|-0.039065|-0.024065|-0.0090654|0.00093457|-0.0090654|-0.024065|-0.024065|-0.024065|-0.019065|0.0059346|0.00093457|-0.0040654|-0.0090654|-0.0040654|0.00093457|0.010935|0.00093457|-0.024065|-0.024065|-0.024065|-0.014065|-0.0040654|-0.0040654|-0.0090654|-0.024065|-0.024065|-0.0040654|0.0059346|-0.0040654|-0.0090654|-0.024065|-0.0040654|0.00093457|0.010935|0.0059346|0.010935|-0.0040654|-0.019065|0.0059346|0.0059346|0.00093457|0.00093457|0.00093457|-0.0040654|0.015935|0.020935|0.020935|0.020935|0.020935|0.030935|0.035935|0.040935|0.015935|-0.014065|-0.039065|-0.049065|-0.064065|-0.084065|-0.10907|-0.13907|-0.16407|-0.24907|-0.33407|-0.42907|-0.48407|-0.56407|-0.63907|-0.72907|-0.81907|-0.94407|-1.0991|-1.2341|-1.2791|-1.2591|-1.1791|-1.0991|-1.0191|-0.94407|-0.86407|-0.75907|-0.65907|-0.59907|-0.53407|-0.48907|-0.43907|-0.39907|-0.34907|-0.27907|-0.21407|-0.16407|-0.074065|-0.024065|0.045935|0.070935|0.080935|0.090935|0.095935|0.10093|0.10593|0.11093|0.11093|0.10593|0.095935|0.10093|0.11093|0.11593|0.10593|0.10093|0.10593|0.11593|0.13093|0.12093|0.13093|0.13093|0.14093|0.14093|0.16593|0.17593|0.17093|0.18093|0.18593|0.18593|0.20593|0.20593|0.20593|0.20593|0.21093|0.21093|0.22593|0.23093|0.23093|0.23093|0.22593|0.24593|0.27093|0.27093|0.28093|0.27593|0.28093|0.29593|0.32593|0.33593|0.33093|0.32593|0.33093|0.34593|0.34593|0.35593|0.35593|0.35093|0.37093|0.37593|0.38593|0.39093|0.39093|0.40593|0.40093|0.41593|0.43093|0.44593|0.44593|0.45093|0.44093|0.45093|0.47593|0.46093|0.46593|0.45593|0.45593|0.45093|0.47093|0.49593|0.49093|0.49093|0.48593|0.49093|0.50093|0.51093|0.50593|0.51093|0.49593|0.50093|0.51093|0.53093|0.52593|0.50093|0.50093|0.49593|0.50093|0.49593|0.49093|0.45593|0.47093|0.47593|0.47593|0.47593|0.46593|0.45593|0.44093|0.43593|0.45093|0.44593|0.44593|0.43093|0.42593|0.42093|0.42093|0.43593|0.41093|0.39093|0.37593|0.37093|0.38593|0.37093|0.37093|0.35593|0.33593|0.33593|0.32593|0.33593|0.32593|0.31593|0.31093|0.31093|0.31093|0.32593|0.31093|0.30593|0.28093|0.28593|0.28093|0.28593|0.27093|0.24093|0.23093|0.21593|0.23093|0.24093|0.23593|0.22093|0.20593|0.20093|0.21593|0.21593|0.21093|0.19593|0.18093|0.18593|0.19593|0.20093|0.18093|0.17093|0.15593|0.16093|0.16593|0.15093|0.13593|0.12593|0.12093|0.12593|0.13593|0.13093|0.12093|0.10593|0.095935|0.090935|0.11093|0.11093|0.085935|0.080935|0.070935|0.085935|0.090935|0.090935|0.075935|0.050935|0.035935|
0.00093457|-0.0040654|-0.0090654|-0.029065|-0.034065|-0.034065|-0.029065|-0.029065|-0.039065|-0.024065|-0.0040654|-0.0040654|-0.0090654|-0.014065|-0.034065|-0.049065|-0.054065|-0.029065|-0.029065|-0.034065|-0.049065|-0.054065|-0.049065|-0.034065|-0.034065|-0.029065|-0.054065|-0.049065|-0.049065|-0.034065|-0.029065|-0.034065|-0.039065|-0.039065|-0.029065|-0.019065|-0.019065|-0.034065|-0.029065|-0.049065|-0.049065|-0.029065|-0.029065|-0.034065|-0.049065|-0.059065|-0.044065|-0.034065|-0.029065|-0.029065|-0.044065|-0.049065|-0.034065|-0.019065|-0.014065|-0.024065|-0.034065|-0.039065|-0.024065|-0.039065|-0.029065|-0.024065|-0.039065|-0.044065|-0.034065|-0.024065|-0.019065|-0.024065|-0.029065|-0.019065|-0.0090654|0.00093457|0.010935|0.015935|0.010935|0.00093457|-0.0040654|-0.0040654|-0.034065|-0.064065|-0.094065|-0.12407|-0.14907|-0.14907|-0.18907|-0.25407|-0.36407|-0.46407|-0.51407|-0.56907|-0.64907|-0.74407|-0.86907|-1.0191|-1.1541|-1.2391|-1.2391|-1.1991|-1.1541|-1.0841|-0.99907|-0.90907|-0.80907|-0.72407|-0.67407|-0.60407|-0.54907|-0.48907|-0.43907|-0.39907|-0.35407|-0.29907|-0.21407|-0.13407|-0.054065|-0.0090654|0.030935|0.035935|0.065935|0.075935|0.085935|0.080935|0.075935|0.065935|0.070935|0.085935|0.10093|0.090935|0.095935|0.080935|0.085935|0.10093|0.12593|0.11593|0.11593|0.12093|0.13093|0.14593|0.16093|0.16093|0.14593|0.14593|0.14093|0.15093|0.16093|0.16593|0.16093|0.16093|0.17093|0.18593|0.19093|0.19593|0.19093|0.19093|0.21593|0.23593|0.24593|0.25093|0.24093|0.24593|0.25593|0.27593|0.27593|0.28093|0.28093|0.28093|0.29093|0.31093|0.32593|0.33593|0.33093|0.33093|0.34593|0.37093|0.38593|0.39093|0.39593|0.39593|0.40593|0.40593|0.42093|0.41593|0.41593|0.40093|0.41593|0.44593|0.45093|0.45593|0.45093|0.45593|0.46593|0.47593|0.48093|0.48093|0.47093|0.46093|0.47593|0.50093|0.50093|0.49093|0.48593|0.47093|0.46093|0.49093|0.48093|0.46593|0.46093|0.45093|0.46093|0.46593|0.46093|0.45093|0.43093|0.42593|0.43093|0.43093|0.43093|0.42093|0.40093|0.39093|0.39093|0.38093|0.38093|0.36093|0.32593|0.31093|0.33093|0.32093|0.33593|0.32593|0.31093|0.30593|0.30093|0.30093|0.29593|0.28093|0.27093|0.27093|0.27093|0.27093|0.25593|0.24093|0.21593|0.20593|0.21593|0.22593|0.22593|0.20093|0.20093|0.18593|0.20093|0.19093|0.19593|0.17593|0.16593|0.14593|0.15593|0.17093|0.17593|0.16593|0.14593|0.12093|0.12593|0.11593|0.12093|0.11093|0.090935|0.075935|0.075935|0.090935|0.075935|0.075935|0.065935|0.050935|0.055935|0.070935|0.075935|0.065935|0.035935|0.040935|0.030935|0.030935|0.025935|0.010935|-0.0040654|-0.0090654|-0.0090654|0.00093457|-0.0040654|-0.014065|-0.024065|-0.039065|-0.049065|-0.019065|-0.0090654|-0.014065|-0.024065|-0.034065|-0.024065|-0.019065|
-0.079065|-0.084065|-0.084065|-0.074065|-0.084065|-0.10907|-0.11407|-0.12407|-0.10907|-0.089065|-0.079065|-0.089065|-0.10407|-0.11407|-0.094065|-0.094065|-0.094065|-0.099065|-0.10907|-0.12907|-0.11407|-0.11407|-0.094065|-0.10407|-0.11907|-0.12407|-0.11907|-0.11407|-0.094065|-0.099065|-0.11907|-0.11407|-0.099065|-0.099065|-0.094065|-0.10407|-0.11407|-0.12407|-0.11907|-0.10907|-0.10407|-0.10907|-0.11907|-0.12907|-0.11907|-0.10407|-0.10907|-0.10907|-0.11407|-0.11907|-0.11907|-0.10407|-0.10407|-0.094065|-0.099065|-0.10907|-0.099065|-0.094065|-0.094065|-0.11907|-0.13407|-0.12407|-0.12407|-0.11407|-0.099065|-0.10907|-0.10407|-0.099065|-0.10907|-0.094065|-0.084065|-0.084065|-0.084065|-0.079065|-0.069065|-0.064065|-0.049065|-0.084065|-0.11407|-0.13907|-0.15407|-0.17407|-0.20407|-0.22407|-0.26907|-0.32907|-0.41907|-0.52907|-0.57907|-0.64907|-0.74407|-0.85407|-0.95407|-1.0941|-1.2291|-1.3191|-1.3291|-1.2891|-1.2091|-1.1141|-1.0291|-0.95407|-0.87407|-0.79907|-0.72907|-0.65407|-0.57907|-0.54407|-0.50907|-0.48407|-0.39407|-0.30907|-0.22907|-0.16907|-0.10907|-0.074065|-0.044065|-0.014065|-0.0040654|-0.0040654|-0.029065|-0.024065|-0.014065|0.0059346|0.010935|-0.0040654|-0.0040654|0.00093457|0.020935|0.025935|0.035935|0.035935|0.030935|0.030935|0.050935|0.065935|0.070935|0.065935|0.055935|0.050935|0.065935|0.080935|0.075935|0.075935|0.070935|0.075935|0.10093|0.11093|0.13093|0.13093|0.12593|0.13093|0.14593|0.16593|0.18093|0.18093|0.17593|0.17593|0.19093|0.21593|0.21593|0.20593|0.21093|0.21093|0.23093|0.25093|0.26093|0.26593|0.25593|0.26093|0.26593|0.28593|0.31093|0.31093|0.30093|0.31593|0.33593|0.34093|0.35093|0.34593|0.33593|0.35093|0.35593|0.38593|0.39093|0.38093|0.36093|0.37593|0.39593|0.41093|0.40593|0.42093|0.41093|0.39593|0.42593|0.44093|0.44093|0.42593|0.43093|0.42093|0.42093|0.42093|0.42593|0.41093|0.39093|0.38593|0.40093|0.40593|0.40593|0.37593|0.37093|0.36593|0.37093|0.39593|0.39093|0.38093|0.36593|0.34093|0.35093|0.33593|0.32593|0.31593|0.29593|0.29593|0.29593|0.30593|0.28093|0.26593|0.26593|0.24593|0.24593|0.26093|0.26093|0.23593|0.24093|0.22593|0.22593|0.24593|0.22093|0.20593|0.18093|0.17093|0.17593|0.18593|0.18593|0.17593|0.15593|0.14093|0.14093|0.13093|0.14593|0.13093|0.12093|0.10593|0.10093|0.11093|0.12593|0.10093|0.090935|0.080935|0.080935|0.065935|0.065935|0.050935|0.030935|0.025935|0.040935|0.030935|0.020935|0.0059346|0.00093457|0.015935|0.025935|0.020935|0.020935|0.015935|0.0059346|-0.0040654|0.00093457|0.010935|-0.0040654|-0.019065|-0.029065|-0.044065|-0.034065|-0.029065|-0.039065|-0.034065|-0.049065|-0.054065|-0.039065|-0.029065|-0.039065|-0.044065|-0.049065|-0.054065|-0.054065|-0.029065|-0.039065|-0.064065|
-0.034065|-0.044065|-0.069065|-0.054065|-0.074065|-0.059065|-0.064065|-0.074065|-0.084065|-0.074065|-0.069065|-0.069065|-0.059065|-0.074065|-0.074065|-0.079065|-0.064065|-0.064065|-0.059065|-0.069065|-0.084065|-0.084065|-0.074065|-0.079065|-0.069065|-0.084065|-0.094065|-0.084065|-0.069065|-0.074065|-0.064065|-0.069065|-0.079065|-0.079065|-0.064065|-0.049065|-0.054065|-0.059065|-0.069065|-0.069065|-0.064065|-0.079065|-0.084065|-0.089065|-0.094065|-0.084065|-0.084065|-0.069065|-0.064065|-0.069065|-0.074065|-0.074065|-0.064065|-0.054065|-0.044065|-0.064065|-0.064065|-0.089065|-0.084065|-0.054065|-0.069065|-0.074065|-0.079065|-0.089065|-0.079065|-0.059065|-0.049065|-0.064065|-0.059065|-0.064065|-0.039065|-0.014065|-0.0090654|-0.019065|-0.024065|-0.034065|-0.044065|-0.039065|-0.059065|-0.089065|-0.099065|-0.13907|-0.15407|-0.15907|-0.19907|-0.26407|-0.38407|-0.48407|-0.53407|-0.58907|-0.66407|-0.78907|-0.91407|-1.0391|-1.1691|-1.2141|-1.2141|-1.1691|-1.1091|-1.0391|-0.94907|-0.85907|-0.76407|-0.69907|-0.63907|-0.57907|-0.50907|-0.45407|-0.40907|-0.37407|-0.30407|-0.24407|-0.15407|-0.074065|-0.0090654|0.010935|0.025935|0.040935|0.055935|0.070935|0.070935|0.060935|0.050935|0.050935|0.060935|0.080935|0.090935|0.080935|0.075935|0.065935|0.090935|0.11093|0.10593|0.10593|0.090935|0.11093|0.12593|0.14593|0.13093|0.14093|0.11593|0.12593|0.14593|0.16093|0.16093|0.14093|0.15593|0.14593|0.15593|0.17093|0.18093|0.19093|0.18093|0.18093|0.20593|0.23093|0.23593|0.22593|0.23593|0.24093|0.25593|0.27093|0.27093|0.27093|0.25593|0.27093|0.28593|0.31593|0.31593|0.30593|0.32593|0.30593|0.31593|0.35093|0.36093|0.36593|0.35593|0.35093|0.38593|0.41593|0.41093|0.39593|0.39593|0.38593|0.41593|0.44093|0.43593|0.43593|0.41593|0.43093|0.43593|0.46593|0.46093|0.45593|0.45593|0.44093|0.48593|0.49593|0.49593|0.49093|0.49093|0.48593|0.49093|0.51593|0.50093|0.47093|0.46593|0.46593|0.46593|0.47593|0.47093|0.46593|0.44093|0.42593|0.45593|0.45593|0.44093|0.44093|0.43093|0.42093|0.42593|0.43093|0.42093|0.38093|0.38093|0.37093|0.37093|0.37593|0.36593|0.35593|0.33593|0.33093|0.33093|0.34593|0.33593|0.31593|0.30593|0.30593|0.30093|0.31593|0.30593|0.29593|0.27593|0.26593|0.26593|0.27093|0.26593|0.23593|0.23093|0.22593|0.23093|0.24093|0.23593|0.20593|0.19093|0.18593|0.19593|0.20593|0.17593|0.17093|0.17593|0.16093|0.16593|0.16593|0.16593|0.14093|0.12593|0.12093|0.12093|0.12593|0.13093|0.11093|0.090935|0.090935|0.095935|0.095935|0.090935|0.075935|0.080935|0.065935|0.080935|0.085935|0.065935|0.060935|0.045935|0.035935|0.030935|0.030935|0.030935|0.025935|0.020935|-0.0040654|-0.0040654|0.020935|0.010935|0.00093457|-0.0040654|-0.0040654|0.010935|0.025935|
-0.034065|-0.029065|-0.029065|-0.044065|-0.064065|-0.069065|-0.059065|-0.059065|-0.044065|-0.049065|-0.064065|-0.069065|-0.079065|-0.064065|-0.044065|-0.049065|-0.059065|-0.069065|-0.064065|-0.044065|-0.039065|-0.064065|-0.079065|-0.074065|-0.084065|-0.074065|-0.064065|-0.059065|-0.064065|-0.074065|-0.069065|-0.069065|-0.054065|-0.064065|-0.064065|-0.059065|-0.054065|-0.049065|-0.059065|-0.059065|-0.049065|-0.064065|-0.069065|-0.059065|-0.049065|-0.049065|-0.069065|-0.069065|-0.074065|-0.054065|-0.049065|-0.049065|-0.064065|-0.084065|-0.064065|-0.044065|-0.034065|-0.039065|-0.039065|-0.049065|-0.044065|-0.039065|-0.054065|-0.049065|-0.054065|-0.059065|-0.064065|-0.054065|-0.024065|-0.039065|-0.034065|-0.034065|-0.024065|-0.019065|-0.029065|-0.014065|-0.044065|-0.064065|-0.084065|-0.089065|-0.094065|-0.12407|-0.16907|-0.19407|-0.22407|-0.29907|-0.38907|-0.46407|-0.53407|-0.60907|-0.70407|-0.79407|-0.89407|-1.0191|-1.1791|-1.2841|-1.2791|-1.2041|-1.1241|-1.0541|-0.99407|-0.90907|-0.81907|-0.73907|-0.64907|-0.58407|-0.52407|-0.47907|-0.43907|-0.37407|-0.31407|-0.23907|-0.16407|-0.11407|-0.034065|0.015935|0.055935|0.070935|0.060935|0.070935|0.070935|0.075935|0.090935|0.090935|0.085935|0.075935|0.075935|0.075935|0.10093|0.10593|0.10093|0.090935|0.085935|0.11093|0.13093|0.12593|0.12593|0.12093|0.13093|0.14093|0.15093|0.16093|0.15093|0.13593|0.15593|0.15593|0.18093|0.18093|0.16593|0.17093|0.18093|0.20093|0.22093|0.22593|0.23593|0.24093|0.24593|0.25593|0.27593|0.29593|0.29093|0.28593|0.29093|0.31593|0.32593|0.32593|0.31093|0.32093|0.33593|0.34593|0.36593|0.38093|0.38593|0.38593|0.39093|0.40593|0.43593|0.44093|0.44093|0.43593|0.44093|0.45093|0.48093|0.48093|0.47093|0.46093|0.46093|0.47593|0.48593|0.49093|0.48593|0.49593|0.50593|0.51093|0.51593|0.53093|0.52093|0.49593|0.51593|0.53093|0.54093|0.52093|0.50593|0.48593|0.47593|0.49593|0.50093|0.49593|0.48093|0.47093|0.45593|0.45593|0.46093|0.46593|0.44593|0.42593|0.43093|0.43593|0.43593|0.43593|0.41593|0.40093|0.38593|0.38093|0.36093|0.35593|0.34593|0.33593|0.33093|0.33093|0.32593|0.32593|0.32093|0.30093|0.29593|0.29593|0.31093|0.30593|0.28093|0.26593|0.26593|0.24093|0.25593|0.24093|0.22093|0.22093|0.21093|0.19593|0.21593|0.21093|0.18593|0.18093|0.16593|0.18093|0.18093|0.16093|0.14593|0.13093|0.12593|0.12093|0.12593|0.11593|0.095935|0.095935|0.090935|0.10593|0.10593|0.090935|0.070935|0.065935|0.065935|0.080935|0.085935|0.075935|0.060935|0.050935|0.035935|0.025935|0.035935|0.035935|0.025935|0.0059346|0.020935|0.020935|0.030935|0.030935|0.015935|0.0059346|0.00093457|0.025935|0.025935|0.020935|0.010935|-0.0090654|0.00093457|0.0059346|0.020935|-0.0040654|-0.014065|-0.014065|
-0.0040654|-0.029065|-0.044065|-0.029065|-0.019065|-0.019065|-0.039065|-0.059065|-0.039065|-0.039065|-0.049065|-0.054065|-0.054065|-0.049065|-0.044065|-0.029065|-0.024065|-0.024065|-0.044065|-0.054065|-0.059065|-0.064065|-0.054065|-0.049065|-0.054065|-0.069065|-0.059065|-0.049065|-0.049065|-0.054065|-0.054065|-0.064065|-0.059065|-0.049065|-0.039065|-0.044065|-0.039065|-0.054065|-0.049065|-0.024065|-0.039065|-0.049065|-0.054065|-0.069065|-0.074065|-0.049065|-0.044065|-0.049065|-0.059065|-0.059065|-0.064065|-0.049065|-0.049065|-0.044065|-0.054065|-0.054065|-0.044065|-0.034065|-0.019065|-0.034065|-0.044065|-0.059065|-0.059065|-0.044065|-0.029065|-0.034065|-0.054065|-0.044065|-0.034065|-0.024065|-0.0040654|0.0059346|0.00093457|-0.0040654|0.0059346|-0.0040654|-0.014065|-0.029065|-0.044065|-0.069065|-0.099065|-0.11907|-0.13407|-0.16407|-0.21407|-0.31907|-0.39907|-0.47407|-0.51907|-0.59907|-0.71407|-0.80407|-0.92407|-1.0641|-1.1941|-1.2591|-1.2491|-1.1891|-1.1191|-1.0391|-0.95407|-0.86907|-0.79907|-0.74407|-0.67407|-0.59907|-0.51407|-0.46907|-0.43907|-0.40907|-0.35407|-0.26407|-0.19907|-0.11407|-0.054065|-0.014065|0.015935|0.040935|0.065935|0.070935|0.070935|0.065935|0.065935|0.080935|0.10593|0.10093|0.080935|0.070935|0.070935|0.090935|0.10593|0.095935|0.090935|0.095935|0.10093|0.12093|0.14093|0.12593|0.12093|0.12593|0.13093|0.15593|0.16593|0.17093|0.15593|0.15593|0.14593|0.16593|0.17593|0.19593|0.17593|0.17093|0.19093|0.20593|0.23093|0.21093|0.23093|0.22593|0.23093|0.24593|0.26093|0.27093|0.27593|0.28593|0.28593|0.30593|0.32093|0.31093|0.29593|0.31093|0.30593|0.32593|0.35093|0.35593|0.35593|0.35093|0.36093|0.37093|0.40093|0.40593|0.39593|0.41093|0.41593|0.43093|0.45593|0.45593|0.44093|0.43093|0.44593|0.46093|0.46093|0.47093|0.47593|0.46593|0.47093|0.48093|0.50593|0.50593|0.50093|0.48593|0.49593|0.52093|0.52093|0.53093|0.52093|0.50593|0.50593|0.51593|0.52093|0.50593|0.48093|0.47093|0.46593|0.48593|0.47593|0.48093|0.47093|0.44593|0.46093|0.46593|0.46593|0.45093|0.43593|0.42593|0.42093|0.43593|0.42093|0.42093|0.41093|0.39593|0.38593|0.39093|0.37093|0.37593|0.35093|0.33593|0.33593|0.33093|0.34093|0.33093|0.32093|0.30593|0.29593|0.31093|0.30593|0.31593|0.29093|0.27593|0.27593|0.28093|0.27093|0.25593|0.24093|0.22593|0.22593|0.22593|0.22593|0.22093|0.19593|0.19093|0.18593|0.19093|0.20093|0.19093|0.19093|0.18093|0.18093|0.18093|0.18093|0.16593|0.14593|0.13093|0.12593|0.13093|0.13093|0.10593|0.095935|0.10593|0.090935|0.11593|0.11593|0.10093|0.095935|0.080935|0.075935|0.095935|0.095935|0.090935|0.085935|0.075935|0.065935|0.070935|0.075935|0.065935|0.050935|0.040935|0.030935|0.045935|0.060935|0.045935|
0.010935|-0.0090654|-0.019065|0.00093457|0.010935|-0.0040654|-0.0040654|-0.019065|-0.0090654|-0.014065|0.00093457|0.0059346|0.0059346|-0.0040654|-0.019065|-0.0090654|-0.0090654|0.010935|0.0059346|0.00093457|-0.014065|-0.014065|-0.014065|0.0059346|0.0059346|-0.0040654|-0.0090654|-0.0090654|-0.0090654|-0.014065|0.00093457|-0.0040654|-0.0040654|0.00093457|0.020935|0.020935|0.020935|0.010935|-0.0090654|-0.0040654|0.010935|0.025935|0.010935|0.00093457|-0.0090654|0.00093457|0.010935|0.010935|0.010935|0.010935|0.00093457|0.00093457|0.020935|0.035935|0.025935|0.00093457|0.010935|0.00093457|0.020935|0.045935|0.040935|0.030935|0.025935|0.015935|0.025935|0.040935|0.040935|0.045935|0.035935|0.050935|0.080935|0.085935|0.075935|0.065935|0.050935|0.040935|0.020935|0.010935|0.00093457|-0.034065|-0.064065|-0.084065|-0.089065|-0.11407|-0.18907|-0.28907|-0.38407|-0.43407|-0.48407|-0.55907|-0.65407|-0.75907|-0.88407|-1.0291|-1.1391|-1.1641|-1.1491|-1.0791|-1.0241|-0.95407|-0.84907|-0.74907|-0.66407|-0.58907|-0.52907|-0.46907|-0.42407|-0.37407|-0.33407|-0.30907|-0.24907|-0.17907|-0.10407|-0.024065|0.020935|0.060935|0.080935|0.10093|0.11593|0.12593|0.12593|0.12593|0.11593|0.13093|0.13593|0.14593|0.15093|0.14093|0.14093|0.15093|0.15593|0.16093|0.15593|0.15093|0.15093|0.16093|0.17093|0.17093|0.19093|0.19093|0.18093|0.17593|0.19593|0.22093|0.21593|0.20593|0.22093|0.23093|0.22093|0.23593|0.24593|0.24093|0.24593|0.24593|0.25593|0.27593|0.26593|0.26093|0.26093|0.28593|0.29093|0.31093|0.32093|0.31593|0.32093|0.33593|0.35593|0.35593|0.38093|0.36593|0.37593|0.37093|0.39093|0.40093|0.40093|0.41093|0.40093|0.42093|0.44093|0.45593|0.46593|0.45093|0.45593|0.46093|0.47593|0.49093|0.50593|0.48093|0.50593|0.51593|0.52093|0.55093|0.54593|0.53093|0.52593|0.53593|0.53593|0.55093|0.55093|0.54093|0.53593|0.54593|0.55593|0.56093|0.55093|0.55593|0.54593|0.55093|0.57093|0.57093|0.55593|0.55093|0.53593|0.53093|0.53093|0.53093|0.52093|0.51593|0.49593|0.49093|0.49093|0.49593|0.50093|0.48593|0.46093|0.44593|0.46093|0.46093|0.45093|0.43593|0.42593|0.42093|0.42093|0.41593|0.40593|0.36093|0.36093|0.36093|0.36593|0.36593|0.35093|0.33593|0.32593|0.32593|0.33593|0.33593|0.33093|0.32093|0.30093|0.29593|0.31093|0.30093|0.28593|0.27093|0.25593|0.24593|0.24593|0.23593|0.22593|0.21093|0.20093|0.20593|0.21593|0.22093|0.20593|0.19093|0.19093|0.18593|0.19093|0.19593|0.18593|0.17093|0.16593|0.17093|0.16593|0.16593|0.15093|0.13093|0.12593|0.12593|0.12593|0.12093|0.095935|0.10093|0.085935|0.090935|0.090935|0.10093|0.085935|0.075935|0.085935|0.080935|0.090935|0.090935|0.080935|0.070935|0.050935|0.050935|0.055935|0.070935|
0.020935|0.010935|0.010935|0.025935|0.045935|0.025935|0.0059346|-0.0090654|-0.014065|0.010935|0.020935|0.0059346|0.00093457|-0.019065|-0.019065|0.00093457|0.00093457|-0.0090654|-0.029065|-0.0090654|0.00093457|0.0059346|0.025935|0.0059346|0.00093457|-0.0090654|-0.0040654|0.0059346|0.0059346|0.0059346|-0.014065|-0.0040654|-0.0090654|0.015935|0.015935|0.015935|-0.0090654|-0.029065|-0.019065|0.020935|0.025935|0.030935|0.00093457|0.010935|0.00093457|0.010935|0.025935|0.020935|-0.0040654|-0.0040654|-0.0040654|0.020935|0.020935|-0.0040654|-0.0040654|0.00093457|0.010935|0.020935|0.035935|0.020935|0.015935|0.010935|0.010935|0.035935|0.045935|0.040935|0.030935|0.025935|0.035935|0.055935|0.065935|0.055935|0.040935|0.040935|0.035935|0.040935|0.025935|-0.0040654|-0.024065|-0.044065|-0.059065|-0.074065|-0.094065|-0.11907|-0.19907|-0.29407|-0.36907|-0.42407|-0.45407|-0.55407|-0.65407|-0.77407|-0.89407|-1.0341|-1.1241|-1.1591|-1.1391|-1.1041|-1.0441|-0.97407|-0.88907|-0.80407|-0.72907|-0.63407|-0.55407|-0.48907|-0.42407|-0.37907|-0.35407|-0.31907|-0.26407|-0.18907|-0.11907|-0.059065|-0.0040654|0.050935|0.075935|0.10593|0.11093|0.12093|0.12093|0.10593|0.12593|0.13093|0.14093|0.14093|0.14593|0.14593|0.13593|0.16593|0.17593|0.16093|0.15593|0.15593|0.15593|0.17093|0.17593|0.17093|0.17093|0.17593|0.18593|0.19093|0.20093|0.19593|0.19093|0.19093|0.20093|0.23093|0.23093|0.22593|0.24093|0.23593|0.26093|0.26593|0.27593|0.27593|0.26093|0.26593|0.27093|0.29093|0.31093|0.31093|0.30093|0.31093|0.31593|0.35093|0.36593|0.37093|0.35593|0.37093|0.39593|0.38593|0.40593|0.40593|0.41093|0.41593|0.42593|0.43593|0.44593|0.44093|0.44593|0.44593|0.46093|0.47593|0.48593|0.48093|0.48593|0.48593|0.51093|0.52593|0.54593|0.54093|0.52593|0.53093|0.54093|0.55093|0.54593|0.54093|0.54093|0.52593|0.53093|0.53093|0.54593|0.56093|0.54593|0.52593|0.53593|0.54093|0.54593|0.54593|0.54093|0.53093|0.54093|0.54093|0.54093|0.52093|0.50593|0.47093|0.48093|0.48593|0.49093|0.46593|0.46093|0.44593|0.45593|0.45093|0.44593|0.43593|0.42593|0.41093|0.41093|0.41593|0.40593|0.40093|0.38093|0.37593|0.35093|0.36593|0.35093|0.33593|0.33093|0.31593|0.31593|0.33593|0.31593|0.30093|0.27593|0.28093|0.28093|0.28593|0.28093|0.26093|0.25593|0.24593|0.25093|0.26093|0.23593|0.21593|0.19093|0.19093|0.18593|0.19593|0.18593|0.18593|0.17093|0.16093|0.16593|0.17093|0.17093|0.14593|0.15093|0.14093|0.14593|0.14593|0.14093|0.13093|0.11093|0.10593|0.11093|0.11593|0.11093|0.095935|0.080935|0.070935|0.080935|0.085935|0.090935|0.070935|0.060935|0.050935|0.065935|0.075935|0.080935|0.065935|0.050935|0.040935|0.030935|0.050935|0.035935|0.025935|
-0.0040654|-0.029065|-0.034065|-0.019065|-0.014065|-0.019065|-0.029065|-0.039065|-0.049065|-0.044065|-0.039065|-0.034065|-0.039065|-0.059065|-0.059065|-0.054065|-0.039065|-0.044065|-0.054065|-0.064065|-0.049065|-0.034065|-0.024065|-0.034065|-0.039065|-0.054065|-0.064065|-0.054065|-0.054065|-0.049065|-0.054065|-0.074065|-0.074065|-0.054065|-0.044065|-0.044065|-0.044065|-0.064065|-0.059065|-0.049065|-0.044065|-0.039065|-0.034065|-0.054065|-0.049065|-0.049065|-0.034065|-0.039065|-0.039065|-0.059065|-0.064065|-0.049065|-0.029065|-0.034065|-0.049065|-0.054065|-0.059065|-0.049065|-0.044065|-0.034065|-0.039065|-0.049065|-0.054065|-0.039065|-0.019065|-0.014065|-0.029065|-0.024065|-0.039065|-0.024065|-0.014065|-0.0040654|-0.014065|-0.019065|-0.039065|-0.039065|-0.054065|-0.059065|-0.084065|-0.10907|-0.12907|-0.16907|-0.15407|-0.15907|-0.22907|-0.32907|-0.41407|-0.46907|-0.51407|-0.58907|-0.69907|-0.81907|-0.94907|-1.0791|-1.1991|-1.2391|-1.2091|-1.1691|-1.1091|-1.0041|-0.91407|-0.81907|-0.75907|-0.68907|-0.61907|-0.54907|-0.49407|-0.43907|-0.40407|-0.36907|-0.32407|-0.24907|-0.16907|-0.10407|-0.049065|-0.034065|0.00093457|0.00093457|0.0059346|0.040935|0.030935|0.030935|0.030935|0.045935|0.060935|0.070935|0.055935|0.050935|0.060935|0.065935|0.075935|0.070935|0.065935|0.065935|0.065935|0.065935|0.090935|0.085935|0.080935|0.080935|0.080935|0.10093|0.12093|0.12593|0.12593|0.11593|0.13093|0.14593|0.16593|0.17093|0.15593|0.15093|0.15593|0.16593|0.16593|0.19593|0.18093|0.16093|0.18093|0.19593|0.22093|0.24093|0.22093|0.22593|0.24593|0.26093|0.28093|0.27593|0.27593|0.28593|0.29093|0.29593|0.32093|0.31093|0.31593|0.31093|0.31593|0.33593|0.35093|0.35093|0.35093|0.35593|0.36093|0.37593|0.40093|0.40093|0.41093|0.41093|0.40593|0.40593|0.43093|0.43093|0.44093|0.43593|0.43093|0.44093|0.45593|0.46093|0.45593|0.43093|0.43093|0.46093|0.46093|0.45593|0.46593|0.45093|0.43593|0.45593|0.46593|0.46593|0.44593|0.43093|0.42593|0.42593|0.42093|0.42093|0.41093|0.39593|0.38093|0.39093|0.39093|0.39093|0.37593|0.35593|0.35093|0.34593|0.36093|0.34593|0.32593|0.31593|0.30593|0.31093|0.32093|0.31093|0.29093|0.28093|0.26593|0.26093|0.25093|0.26593|0.25593|0.23593|0.21593|0.22593|0.24093|0.23593|0.22093|0.20093|0.18593|0.19593|0.20593|0.20093|0.19093|0.17093|0.15093|0.16593|0.16593|0.16093|0.14593|0.13093|0.12593|0.10593|0.13093|0.12093|0.11093|0.095935|0.075935|0.10093|0.10593|0.090935|0.070935|0.065935|0.065935|0.055935|0.060935|0.050935|0.040935|0.020935|0.015935|0.030935|0.020935|0.030935|0.015935|0.0059346|-0.014065|-0.0090654|0.010935|-0.0040654|-0.0040654|-0.024065|-0.029065|-0.014065|-0.019065|-0.014065|-0.034065|-0.049065|-0.059065|-0.039065|-0.034065|-0.034065|
-0.044065|-0.074065|-0.069065|-0.064065|-0.054065|-0.054065|-0.049065|-0.064065|-0.079065|-0.084065|-0.074065|-0.074065|-0.10907|-0.099065|-0.099065|-0.074065|-0.069065|-0.079065|-0.074065|-0.084065|-0.094065|-0.074065|-0.064065|-0.049065|-0.059065|-0.064065|-0.074065|-0.074065|-0.054065|-0.064065|-0.074065|-0.069065|-0.069065|-0.069065|-0.054065|-0.054065|-0.064065|-0.084065|-0.074065|-0.059065|-0.044065|-0.039065|-0.054065|-0.059065|-0.059065|-0.054065|-0.049065|-0.044065|-0.059065|-0.069065|-0.064065|-0.054065|-0.039065|-0.044065|-0.054065|-0.064065|-0.059065|-0.049065|-0.044065|-0.054065|-0.054065|-0.064065|-0.054065|-0.039065|-0.014065|-0.019065|-0.024065|-0.039065|-0.034065|-0.029065|-0.0090654|0.0059346|-0.0090654|-0.019065|-0.014065|-0.014065|-0.019065|-0.039065|-0.069065|-0.074065|-0.089065|-0.10907|-0.12907|-0.13407|-0.19407|-0.27407|-0.37407|-0.44907|-0.49407|-0.54907|-0.65907|-0.77907|-0.89907|-1.0491|-1.1691|-1.2191|-1.2041|-1.1491|-1.0941|-1.0091|-0.91907|-0.81407|-0.73907|-0.66907|-0.60407|-0.52407|-0.45407|-0.41407|-0.37407|-0.33907|-0.27407|-0.17907|-0.099065|-0.024065|-0.014065|0.010935|0.025935|0.045935|0.035935|0.070935|0.060935|0.050935|0.045935|0.080935|0.10593|0.11093|0.10093|0.095935|0.095935|0.10593|0.095935|0.12093|0.10093|0.10093|0.10093|0.11093|0.13593|0.12093|0.13593|0.13093|0.11593|0.13593|0.15593|0.17093|0.17093|0.16093|0.16593|0.17593|0.19593|0.20593|0.20093|0.20093|0.19593|0.20593|0.22093|0.24593|0.23593|0.24093|0.23593|0.26593|0.28093|0.29093|0.29093|0.29093|0.31093|0.33093|0.36093|0.34593|0.35093|0.34093|0.34593|0.37093|0.37593|0.37593|0.38593|0.39093|0.39093|0.40593|0.43093|0.43093|0.43593|0.43093|0.43093|0.45093|0.47593|0.47593|0.48593|0.49093|0.48093|0.50093|0.49593|0.50093|0.49093|0.50093|0.50093|0.50593|0.52093|0.50093|0.50093|0.50593|0.50093|0.52593|0.52593|0.51593|0.50593|0.50093|0.49093|0.50093|0.51093|0.51093|0.49593|0.48093|0.47093|0.47093|0.47593|0.47093|0.45593|0.44593|0.43593|0.45093|0.43593|0.44093|0.41093|0.40093|0.39593|0.40593|0.41093|0.40093|0.37093|0.36093|0.33093|0.35093|0.34593|0.33093|0.31593|0.31593|0.29093|0.30593|0.31593|0.30593|0.30093|0.27593|0.26093|0.27093|0.28593|0.27593|0.25593|0.24593|0.24093|0.24593|0.24093|0.22093|0.21093|0.19593|0.19093|0.20093|0.20093|0.19093|0.20093|0.18093|0.15093|0.16093|0.15093|0.16093|0.14093|0.13093|0.11593|0.12093|0.14093|0.12093|0.10593|0.095935|0.090935|0.10093|0.10093|0.10093|0.090935|0.085935|0.080935|0.085935|0.075935|0.070935|0.080935|0.065935|0.045935|0.060935|0.075935|0.060935|0.045935|0.030935|0.010935|0.035935|0.045935|0.040935|0.030935|0.015935|0.015935|0.0059346|0.030935|0.035935|
0.020935|0.015935|-0.0090654|-0.019065|-0.024065|0.00093457|0.015935|0.015935|0.0059346|-0.0090654|-0.0040654|0.0059346|0.015935|0.00093457|-0.0040654|-0.019065|-0.024065|-0.014065|-0.014065|-0.0090654|-0.014065|-0.029065|-0.029065|-0.024065|-0.024065|-0.024065|-0.039065|-0.039065|-0.034065|-0.024065|-0.0090654|-0.0090654|-0.019065|-0.029065|-0.039065|-0.034065|-0.014065|-0.019065|-0.024065|-0.029065|-0.034065|-0.024065|-0.014065|-0.0090654|-0.029065|-0.039065|-0.039065|-0.024065|0.00093457|-0.0090654|-0.014065|-0.029065|-0.024065|-0.0090654|-0.0090654|-0.0090654|-0.019065|-0.049065|-0.034065|-0.029065|-0.0090654|-0.014065|-0.019065|-0.044065|-0.039065|-0.0090654|0.0059346|0.010935|0.010935|0.010935|0.0059346|0.015935|0.045935|0.030935|0.025935|-0.0040654|-0.034065|-0.039065|-0.039065|-0.049065|-0.084065|-0.12407|-0.14407|-0.16407|-0.19907|-0.27407|-0.35907|-0.40907|-0.45407|-0.50407|-0.59407|-0.70907|-0.85907|-1.0241|-1.1441|-1.1491|-1.0991|-1.0541|-1.0291|-0.99907|-0.92407|-0.81907|-0.71407|-0.62907|-0.56907|-0.51407|-0.46407|-0.39407|-0.34407|-0.30407|-0.28407|-0.20907|-0.13907|-0.059065|0.00093457|0.020935|0.020935|0.030935|0.025935|0.055935|0.060935|0.065935|0.050935|0.045935|0.060935|0.080935|0.095935|0.090935|0.085935|0.080935|0.095935|0.11093|0.10093|0.090935|0.080935|0.095935|0.10593|0.12593|0.12593|0.11593|0.10593|0.11093|0.11093|0.12593|0.14593|0.14093|0.14093|0.12593|0.14593|0.16593|0.17593|0.18093|0.16593|0.17593|0.19093|0.20093|0.21593|0.22093|0.22093|0.21593|0.22093|0.23593|0.25093|0.26093|0.25593|0.26593|0.26093|0.28093|0.30593|0.31093|0.31093|0.31593|0.32593|0.33593|0.35593|0.35093|0.34093|0.34593|0.35093|0.38593|0.40593|0.38593|0.38593|0.38593|0.40093|0.39593|0.41593|0.43593|0.43593|0.42593|0.42093|0.44093|0.46093|0.47593|0.46093|0.44093|0.45093|0.46093|0.46593|0.46593|0.46093|0.45093|0.45593|0.46093|0.47093|0.45593|0.45093|0.42593|0.44093|0.44093|0.46093|0.45093|0.41593|0.41593|0.41593|0.42093|0.41593|0.38593|0.38593|0.37093|0.35593|0.36093|0.37093|0.35593|0.34093|0.31593|0.31593|0.32593|0.33593|0.32093|0.28593|0.27593|0.28093|0.28093|0.27093|0.27093|0.25093|0.21593|0.22093|0.22593|0.22593|0.22593|0.20593|0.19093|0.19093|0.19093|0.19093|0.18593|0.18093|0.16093|0.15093|0.15593|0.16093|0.14093|0.12593|0.10593|0.10593|0.11593|0.11093|0.10593|0.085935|0.060935|0.065935|0.070935|0.070935|0.070935|0.060935|0.060935|0.055935|0.070935|0.065935|0.055935|0.040935|0.030935|0.020935|0.020935|0.025935|0.020935|0.0059346|-0.0040654|-0.0090654|0.0059346|0.010935|0.015935|-0.0090654|-0.019065|-0.024065|-0.0040654|0.0059346|-0.0040654|-0.024065|-0.029065|-0.019065|-0.019065|-0.014065|-0.019065|-0.034065|-0.044065|-0.034065|-0.034065|
-0.024065|-0.014065|-0.0090654|-0.0040654|0.00093457|-0.034065|-0.049065|-0.054065|-0.049065|-0.034065|-0.044065|-0.044065|-0.034065|-0.034065|-0.034065|-0.029065|-0.019065|-0.034065|-0.039065|-0.059065|-0.049065|-0.039065|-0.049065|-0.054065|-0.064065|-0.059065|-0.059065|-0.049065|-0.044065|-0.054065|-0.059065|-0.059065|-0.049065|-0.034065|-0.029065|-0.039065|-0.049065|-0.054065|-0.044065|-0.049065|-0.049065|-0.059065|-0.064065|-0.064065|-0.049065|-0.039065|-0.069065|-0.049065|-0.064065|-0.069065|-0.054065|-0.029065|-0.024065|-0.054065|-0.044065|-0.054065|-0.044065|-0.024065|-0.019065|-0.044065|-0.064065|-0.064065|-0.054065|-0.044065|-0.049065|-0.054065|-0.049065|-0.049065|-0.034065|-0.014065|-0.019065|-0.014065|-0.0040654|-0.014065|0.0059346|0.015935|0.00093457|-0.029065|-0.064065|-0.084065|-0.079065|-0.10407|-0.14407|-0.16907|-0.21407|-0.27907|-0.35407|-0.42407|-0.47407|-0.53907|-0.63907|-0.74907|-0.86407|-1.0191|-1.1641|-1.2391|-1.2291|-1.1791|-1.1091|-1.0341|-0.93907|-0.84407|-0.75907|-0.67907|-0.59907|-0.53407|-0.47407|-0.42407|-0.39407|-0.34407|-0.25907|-0.17407|-0.099065|-0.054065|-0.014065|0.010935|0.030935|0.045935|0.040935|0.035935|0.010935|0.015935|0.040935|0.050935|0.055935|0.040935|0.035935|0.035935|0.055935|0.070935|0.065935|0.055935|0.045935|0.060935|0.075935|0.085935|0.090935|0.085935|0.080935|0.080935|0.090935|0.10593|0.10593|0.10093|0.10093|0.10593|0.11593|0.12093|0.14093|0.13093|0.12093|0.12593|0.14093|0.16593|0.18093|0.17093|0.17593|0.18593|0.19093|0.22093|0.19093|0.19093|0.19093|0.21093|0.22093|0.25093|0.24093|0.22593|0.23093|0.24593|0.26093|0.28093|0.28093|0.27593|0.29093|0.29593|0.31593|0.32593|0.33093|0.32093|0.32093|0.32593|0.33593|0.35593|0.35593|0.35593|0.33593|0.36093|0.36593|0.38593|0.39093|0.38593|0.38593|0.39593|0.40593|0.42093|0.42093|0.41093|0.40093|0.41093|0.40093|0.40093|0.41093|0.39093|0.38093|0.39093|0.38093|0.39593|0.39593|0.38093|0.37093|0.37593|0.37593|0.38093|0.38093|0.36593|0.35093|0.35593|0.35093|0.35093|0.34593|0.32093|0.30093|0.29093|0.29593|0.30093|0.28593|0.27593|0.25093|0.25093|0.25593|0.25593|0.25593|0.22093|0.21593|0.21093|0.22593|0.23593|0.22093|0.19593|0.18593|0.18593|0.17593|0.17093|0.17593|0.16093|0.14093|0.14093|0.14093|0.15093|0.13093|0.11593|0.10593|0.090935|0.10093|0.12593|0.11093|0.095935|0.075935|0.080935|0.085935|0.095935|0.080935|0.065935|0.035935|0.035935|0.040935|0.035935|0.035935|0.020935|0.010935|0.015935|0.020935|0.025935|0.020935|0.00093457|-0.0040654|-0.0090654|-0.0040654|0.00093457|-0.0040654|-0.014065|-0.039065|-0.034065|-0.029065|-0.049065|-0.054065|-0.059065|-0.059065|-0.069065|-0.059065|-0.049065|-0.059065|-0.069065|-0.074065|-0.084065|-0.084065|-0.074065|-0.064065|-0.094065|
-0.12907|-0.12407|-0.13407|-0.13407|-0.12907|-0.12407|-0.12907|-0.14907|-0.14907|-0.16907|-0.14407|-0.13407|-0.14407|-0.14907|-0.15907|-0.16907|-0.14907|-0.14407|-0.14907|-0.14407|-0.15407|-0.16407|-0.14407|-0.13907|-0.12907|-0.13907|-0.15407|-0.14907|-0.14407|-0.13907|-0.13407|-0.14907|-0.15407|-0.15407|-0.14407|-0.14407|-0.14407|-0.14407|-0.15407|-0.16407|-0.16907|-0.14407|-0.13407|-0.14407|-0.15407|-0.14907|-0.13907|-0.12907|-0.12407|-0.12907|-0.14907|-0.14407|-0.13407|-0.12907|-0.11907|-0.13907|-0.14907|-0.13907|-0.12407|-0.12907|-0.12407|-0.12907|-0.14407|-0.14907|-0.11407|-0.10907|-0.10907|-0.12407|-0.12407|-0.094065|-0.084065|-0.069065|-0.064065|-0.074065|-0.099065|-0.13407|-0.13907|-0.14407|-0.16407|-0.19907|-0.22907|-0.25407|-0.24407|-0.28907|-0.37407|-0.47407|-0.53907|-0.56907|-0.61407|-0.69907|-0.78407|-0.89907|-1.0491|-1.2141|-1.3041|-1.3241|-1.2741|-1.2391|-1.1841|-1.1191|-1.0341|-0.95407|-0.88907|-0.80907|-0.75907|-0.67907|-0.62407|-0.58407|-0.52407|-0.48407|-0.44907|-0.38907|-0.31907|-0.23407|-0.16407|-0.12407|-0.089065|-0.064065|-0.039065|-0.024065|-0.034065|-0.049065|-0.039065|-0.034065|-0.024065|-0.014065|-0.014065|-0.029065|-0.039065|-0.019065|-0.0090654|0.00093457|0.0059346|0.0059346|0.00093457|0.00093457|0.010935|0.015935|0.020935|0.025935|0.025935|0.020935|0.025935|0.035935|0.030935|0.020935|0.025935|0.030935|0.030935|0.055935|0.055935|0.055935|0.050935|0.050935|0.080935|0.085935|0.095935|0.090935|0.10093|0.10093|0.13093|0.13593|0.13593|0.13093|0.13093|0.14593|0.15593|0.16593|0.17593|0.16593|0.17093|0.18593|0.19593|0.21093|0.19593|0.21093|0.20593|0.23093|0.24093|0.25093|0.25593|0.26593|0.27093|0.27593|0.30093|0.31093|0.31093|0.29593|0.29093|0.31093|0.31593|0.34593|0.33593|0.32593|0.32093|0.33093|0.36093|0.36593|0.37093|0.37093|0.35593|0.36593|0.40593|0.40593|0.39093|0.39093|0.39593|0.38593|0.39093|0.40093|0.40593|0.39093|0.36593|0.38093|0.38593|0.39093|0.39093|0.38093|0.37593|0.36593|0.38093|0.37593|0.37093|0.36093|0.36093|0.35093|0.37093|0.36093|0.35093|0.33593|0.33093|0.31593|0.31093|0.32093|0.31093|0.29593|0.28093|0.27593|0.27593|0.28593|0.27093|0.26593|0.24093|0.24093|0.23593|0.26093|0.25093|0.24093|0.22593|0.24593|0.23093|0.22093|0.20593|0.19093|0.16593|0.17593|0.18593|0.18593|0.16593|0.15593|0.13093|0.13593|0.14593|0.14593|0.13593|0.12593|0.12093|0.12593|0.13093|0.13093|0.12093|0.11093|0.095935|0.090935|0.085935|0.085935|0.080935|0.065935|0.055935|0.055935|0.060935|0.050935|0.035935|0.030935|0.010935|0.030935|0.030935|0.040935|0.030935|0.025935|0.015935|0.00093457|0.010935|0.010935|0.00093457|-0.019065|-0.034065|-0.039065|-0.039065|-0.034065|
-0.15407|-0.15907|-0.15407|-0.11407|-0.099065|-0.11907|-0.12407|-0.13407|-0.12407|-0.12407|-0.12407|-0.12907|-0.13907|-0.15407|-0.15407|-0.13907|-0.14407|-0.15407|-0.15407|-0.14407|-0.14407|-0.12907|-0.13407|-0.13407|-0.13907|-0.13407|-0.13907|-0.12907|-0.12407|-0.12407|-0.12907|-0.16407|-0.14907|-0.13907|-0.13407|-0.14407|-0.15907|-0.15907|-0.15407|-0.13407|-0.12907|-0.14907|-0.16907|-0.16407|-0.14907|-0.13407|-0.13407|-0.13407|-0.12907|-0.14407|-0.16407|-0.13407|-0.12907|-0.11407|-0.15407|-0.15407|-0.14407|-0.13407|-0.12407|-0.14407|-0.15907|-0.15407|-0.13407|-0.12907|-0.12407|-0.12407|-0.14407|-0.13407|-0.10907|-0.094065|-0.089065|-0.079065|-0.079065|-0.089065|-0.10907|-0.13407|-0.15407|-0.16407|-0.19407|-0.20907|-0.23407|-0.24907|-0.24907|-0.30407|-0.35907|-0.44407|-0.49907|-0.52907|-0.56907|-0.65407|-0.76407|-0.89907|-1.0491|-1.1841|-1.2491|-1.2491|-1.2141|-1.1841|-1.1391|-1.0691|-0.97407|-0.89907|-0.84407|-0.76407|-0.71407|-0.63907|-0.56907|-0.52907|-0.50407|-0.45907|-0.39907|-0.33407|-0.23907|-0.17907|-0.13907|-0.11407|-0.094065|-0.069065|-0.064065|-0.064065|-0.074065|-0.084065|-0.074065|-0.069065|-0.054065|-0.044065|-0.044065|-0.049065|-0.049065|-0.044065|-0.034065|-0.034065|-0.024065|-0.034065|-0.034065|-0.0090654|-0.0090654|-0.0040654|-0.0040654|-0.0090654|-0.0040654|0.0059346|0.020935|0.030935|0.020935|0.0059346|0.015935|0.025935|0.035935|0.040935|0.040935|0.040935|0.055935|0.055935|0.075935|0.090935|0.075935|0.070935|0.085935|0.10093|0.11093|0.12093|0.11093|0.12593|0.12593|0.15093|0.14593|0.14593|0.15593|0.17593|0.17593|0.19093|0.18593|0.19593|0.20593|0.20093|0.21093|0.23593|0.24593|0.24593|0.24593|0.24593|0.24593|0.26593|0.27093|0.28093|0.25593|0.26593|0.29093|0.31093|0.31593|0.30093|0.29593|0.29093|0.29593|0.32593|0.34593|0.34093|0.33093|0.30593|0.33593|0.36093|0.37093|0.36093|0.34093|0.33093|0.35093|0.37093|0.36593|0.35593|0.33093|0.34593|0.36593|0.37093|0.36593|0.36093|0.34593|0.32593|0.33093|0.33093|0.34593|0.34593|0.32593|0.30093|0.29093|0.30093|0.31093|0.29593|0.28093|0.26093|0.26593|0.27093|0.28093|0.25593|0.23093|0.21593|0.23593|0.23093|0.24093|0.22593|0.20593|0.18093|0.17093|0.18593|0.20093|0.18593|0.16593|0.14093|0.13093|0.15593|0.14093|0.14093|0.11093|0.11093|0.10093|0.10593|0.10093|0.095935|0.10593|0.095935|0.10093|0.10593|0.085935|0.080935|0.060935|0.050935|0.045935|0.055935|0.040935|0.030935|0.015935|0.00093457|0.00093457|0.015935|0.0059346|0.020935|0.00093457|-0.019065|-0.019065|-0.0090654|-0.0090654|-0.0040654|-0.024065|-0.039065|-0.049065|-0.029065|-0.029065|-0.049065|-0.079065|-0.094065|-0.089065|-0.059065|-0.064065|-0.059065|-0.074065|-0.084065|-0.074065|-0.079065|-0.089065|-0.079065|
-0.089065|-0.10907|-0.10907|-0.10407|-0.089065|-0.10407|-0.10407|-0.13407|-0.14407|-0.14407|-0.13407|-0.12907|-0.13407|-0.14907|-0.14907|-0.13407|-0.11907|-0.12407|-0.12407|-0.13407|-0.15407|-0.14907|-0.11907|-0.12907|-0.13907|-0.14907|-0.15907|-0.13407|-0.13407|-0.13407|-0.14407|-0.15407|-0.16407|-0.13907|-0.11907|-0.11407|-0.12407|-0.14407|-0.14407|-0.13407|-0.11907|-0.12907|-0.13907|-0.13907|-0.15407|-0.14407|-0.14407|-0.14407|-0.14407|-0.14907|-0.14907|-0.13407|-0.13907|-0.12907|-0.13907|-0.13907|-0.14407|-0.12407|-0.11907|-0.12407|-0.12407|-0.13407|-0.14407|-0.13407|-0.12407|-0.11407|-0.11907|-0.13907|-0.13907|-0.12907|-0.099065|-0.10407|-0.10907|-0.099065|-0.10407|-0.094065|-0.10407|-0.10907|-0.12907|-0.15907|-0.18407|-0.20407|-0.20907|-0.23407|-0.25907|-0.31907|-0.37907|-0.43407|-0.47407|-0.51407|-0.59407|-0.69907|-0.83907|-0.99407|-1.1091|-1.1641|-1.1591|-1.1341|-1.1041|-1.0491|-0.94407|-0.85407|-0.78407|-0.71907|-0.65407|-0.58907|-0.52407|-0.50407|-0.44907|-0.41407|-0.36407|-0.29407|-0.22407|-0.15907|-0.12907|-0.10907|-0.089065|-0.064065|-0.044065|-0.034065|-0.039065|-0.044065|-0.059065|-0.049065|-0.034065|-0.019065|-0.019065|-0.039065|-0.049065|-0.019065|-0.0090654|-0.014065|-0.014065|-0.024065|-0.029065|-0.0090654|0.0059346|0.015935|0.030935|0.010935|0.010935|0.030935|0.035935|0.030935|0.040935|0.035935|0.030935|0.040935|0.065935|0.070935|0.065935|0.060935|0.060935|0.080935|0.10593|0.10093|0.11093|0.085935|0.095935|0.10593|0.12593|0.15093|0.14593|0.13093|0.14093|0.15593|0.17093|0.18593|0.18593|0.18093|0.18593|0.18593|0.20593|0.22093|0.22093|0.21593|0.22093|0.24093|0.26093|0.27593|0.27593|0.25593|0.27593|0.27593|0.29093|0.30093|0.28593|0.28593|0.28093|0.30593|0.32593|0.32593|0.32593|0.30093|0.31093|0.32593|0.34093|0.35093|0.34093|0.33093|0.34593|0.35593|0.37593|0.37093|0.36093|0.35093|0.35093|0.35593|0.36093|0.35093|0.34593|0.33593|0.32593|0.34093|0.34593|0.35093|0.32593|0.31593|0.29593|0.31093|0.31593|0.31093|0.31593|0.29093|0.27593|0.27593|0.28093|0.27093|0.24093|0.23093|0.22593|0.21593|0.23093|0.23593|0.21093|0.19093|0.18093|0.17593|0.19093|0.18593|0.17593|0.15593|0.16093|0.15093|0.15093|0.15593|0.12593|0.10093|0.090935|0.10093|0.10593|0.095935|0.080935|0.075935|0.065935|0.065935|0.075935|0.070935|0.050935|0.040935|0.045935|0.045935|0.060935|0.050935|0.040935|0.020935|0.00093457|-0.0040654|-0.0040654|0.0059346|0.0059346|-0.034065|-0.034065|-0.014065|-0.0090654|-0.014065|-0.039065|-0.039065|-0.049065|-0.049065|-0.039065|-0.049065|-0.049065|-0.069065|-0.074065|-0.059065|-0.069065|-0.064065|-0.089065|-0.099065|-0.11407|-0.099065|-0.089065|-0.089065|-0.099065|-0.12407|-0.11907|-0.10907|-0.099065|-0.10907|
-0.14407|-0.15907|-0.14907|-0.13407|-0.14407|-0.15407|-0.16907|-0.17407|-0.16907|-0.15907|-0.16407|-0.14407|-0.15407|-0.15907|-0.15407|-0.13407|-0.13407|-0.14407|-0.16907|-0.17907|-0.17407|-0.15407|-0.16407|-0.16407|-0.16907|-0.17907|-0.16907|-0.15907|-0.15907|-0.16907|-0.17407|-0.17907|-0.17407|-0.16407|-0.15907|-0.16407|-0.17407|-0.16907|-0.16407|-0.17407|-0.17407|-0.17407|-0.18407|-0.18907|-0.17907|-0.16407|-0.16407|-0.17407|-0.18407|-0.18407|-0.17407|-0.16907|-0.14907|-0.16407|-0.17407|-0.17407|-0.15907|-0.14907|-0.16407|-0.17407|-0.18407|-0.18407|-0.17907|-0.16907|-0.16907|-0.16907|-0.18407|-0.16907|-0.14907|-0.14407|-0.13407|-0.13907|-0.14907|-0.15407|-0.14907|-0.14407|-0.16907|-0.18907|-0.21907|-0.23407|-0.25407|-0.26407|-0.28907|-0.33907|-0.41907|-0.49407|-0.54907|-0.59407|-0.66907|-0.75407|-0.86907|-0.98407|-1.1191|-1.2291|-1.2941|-1.2991|-1.2591|-1.2241|-1.1641|-1.0791|-1.0041|-0.93907|-0.86407|-0.80407|-0.72907|-0.63407|-0.60407|-0.55907|-0.51907|-0.47907|-0.39407|-0.31407|-0.24907|-0.19407|-0.16407|-0.13407|-0.10407|-0.084065|-0.079065|-0.089065|-0.099065|-0.094065|-0.089065|-0.079065|-0.064065|-0.074065|-0.079065|-0.084065|-0.059065|-0.054065|-0.059065|-0.059065|-0.069065|-0.059065|-0.054065|-0.039065|-0.034065|-0.024065|-0.024065|-0.024065|-0.029065|0.00093457|-0.0040654|-0.0040654|-0.014065|-0.029065|-0.0040654|0.020935|0.0059346|0.00093457|0.010935|0.020935|0.035935|0.055935|0.055935|0.055935|0.060935|0.060935|0.080935|0.095935|0.10093|0.10093|0.085935|0.10593|0.11093|0.12093|0.13593|0.14093|0.14593|0.14093|0.15593|0.16593|0.18593|0.17593|0.16593|0.19093|0.19593|0.21593|0.23593|0.23593|0.23093|0.24093|0.24593|0.27093|0.27593|0.27093|0.27093|0.26593|0.28093|0.29093|0.29093|0.28593|0.28593|0.28593|0.31093|0.33593|0.33593|0.32093|0.31593|0.32093|0.34093|0.34593|0.34593|0.34593|0.33593|0.31593|0.32093|0.34093|0.32593|0.33093|0.30093|0.29093|0.31593|0.32093|0.31593|0.30593|0.29093|0.29093|0.28593|0.29593|0.29093|0.27593|0.26093|0.25593|0.25593|0.26593|0.24093|0.23093|0.21093|0.19593|0.20093|0.21093|0.20093|0.17593|0.17593|0.16093|0.17093|0.17593|0.17093|0.16593|0.15593|0.14593|0.15093|0.16093|0.15593|0.12093|0.10593|0.10093|0.095935|0.11593|0.10093|0.085935|0.080935|0.070935|0.080935|0.075935|0.060935|0.050935|0.040935|0.035935|0.050935|0.060935|0.050935|0.030935|0.00093457|0.00093457|-0.0040654|-0.0040654|0.00093457|-0.024065|-0.034065|-0.029065|-0.034065|-0.029065|-0.029065|-0.044065|-0.054065|-0.069065|-0.044065|-0.034065|-0.039065|-0.059065|-0.069065|-0.074065|-0.069065|-0.074065|-0.074065|-0.089065|-0.10907|-0.11907|-0.10407|-0.094065|-0.099065|-0.10907|-0.11407|-0.11907|-0.10907|-0.10407|-0.099065|-0.099065|
-0.084065|-0.099065|-0.094065|-0.11407|-0.10907|-0.10907|-0.12407|-0.12907|-0.14907|-0.15407|-0.15407|-0.14407|-0.14407|-0.15407|-0.15407|-0.14907|-0.14907|-0.12407|-0.11907|-0.13907|-0.14907|-0.16407|-0.15407|-0.13907|-0.14907|-0.15907|-0.17407|-0.17407|-0.14907|-0.14907|-0.14407|-0.15407|-0.15407|-0.15907|-0.15907|-0.13907|-0.13907|-0.15407|-0.15907|-0.15907|-0.14407|-0.13907|-0.14407|-0.14407|-0.16407|-0.15407|-0.15407|-0.12907|-0.13907|-0.14907|-0.16907|-0.17407|-0.15907|-0.14907|-0.14907|-0.14407|-0.15407|-0.15407|-0.13907|-0.13907|-0.13407|-0.14407|-0.14907|-0.16907|-0.13907|-0.13407|-0.12407|-0.15907|-0.13907|-0.14407|-0.13407|-0.13407|-0.11407|-0.11407|-0.12407|-0.13907|-0.12907|-0.14907|-0.16407|-0.19407|-0.23407|-0.25907|-0.26907|-0.27407|-0.34907|-0.43907|-0.51407|-0.57407|-0.61407|-0.67407|-0.77907|-0.91907|-1.0741|-1.2191|-1.3041|-1.2891|-1.2441|-1.2041|-1.1691|-1.1041|-1.0041|-0.90907|-0.82907|-0.77407|-0.72907|-0.65407|-0.57907|-0.52407|-0.50907|-0.47407|-0.41407|-0.33407|-0.25907|-0.18907|-0.13907|-0.11407|-0.094065|-0.094065|-0.069065|-0.049065|-0.044065|-0.059065|-0.059065|-0.074065|-0.054065|-0.059065|-0.054065|-0.059065|-0.054065|-0.064065|-0.044065|-0.029065|-0.039065|-0.039065|-0.034065|-0.029065|-0.019065|-0.0090654|-0.0090654|-0.024065|-0.0040654|-0.0090654|0.010935|0.025935|0.025935|0.015935|0.010935|0.010935|0.030935|0.045935|0.040935|0.040935|0.030935|0.030935|0.060935|0.090935|0.090935|0.085935|0.050935|0.090935|0.11593|0.12593|0.14593|0.13593|0.12593|0.12593|0.15093|0.16093|0.16093|0.15093|0.16593|0.17593|0.19093|0.20593|0.19593|0.19593|0.21093|0.21593|0.24593|0.26593|0.27593|0.27093|0.26593|0.26093|0.29093|0.30593|0.31593|0.31593|0.29593|0.30593|0.31093|0.34093|0.32593|0.32593|0.33593|0.34593|0.34593|0.35093|0.36093|0.36093|0.35593|0.34093|0.37593|0.38593|0.38593|0.37593|0.36093|0.35093|0.35593|0.37093|0.38593|0.37093|0.36093|0.34093|0.32093|0.34093|0.33593|0.34093|0.31593|0.31593|0.32093|0.33593|0.32093|0.30093|0.28093|0.28093|0.28593|0.28093|0.26093|0.25593|0.25093|0.23593|0.22593|0.23093|0.21593|0.20093|0.21093|0.19093|0.20093|0.19093|0.18093|0.17093|0.16593|0.17093|0.17593|0.17093|0.16593|0.12593|0.11093|0.11093|0.10593|0.11593|0.11593|0.075935|0.080935|0.070935|0.070935|0.080935|0.080935|0.060935|0.055935|0.070935|0.060935|0.050935|0.040935|0.025935|0.010935|0.0059346|0.010935|0.0059346|-0.0090654|-0.0040654|-0.029065|-0.029065|-0.014065|-0.0040654|-0.029065|-0.044065|-0.069065|-0.064065|-0.049065|-0.049065|-0.049065|-0.074065|-0.094065|-0.10907|-0.099065|-0.074065|-0.079065|-0.094065|-0.11407|-0.10907|-0.099065|-0.074065|-0.094065|-0.10907|-0.11407|-0.11407|-0.099065|-0.094065|
-0.079065|-0.084065|-0.089065|-0.089065|-0.094065|-0.084065|-0.069065|-0.084065|-0.089065|-0.10907|-0.11407|-0.10407|-0.11407|-0.10907|-0.14407|-0.15407|-0.15907|-0.13407|-0.11407|-0.10407|-0.13407|-0.13407|-0.13907|-0.12907|-0.11407|-0.11907|-0.11907|-0.13407|-0.13907|-0.12907|-0.099065|-0.10407|-0.11907|-0.14907|-0.14907|-0.14907|-0.14407|-0.11407|-0.12907|-0.13907|-0.13407|-0.11907|-0.11907|-0.11907|-0.13407|-0.13907|-0.12907|-0.11907|-0.10907|-0.11907|-0.13407|-0.12907|-0.14407|-0.12407|-0.13407|-0.12407|-0.13907|-0.13907|-0.12407|-0.12907|-0.10907|-0.12907|-0.14407|-0.14407|-0.13407|-0.13407|-0.11407|-0.099065|-0.10907|-0.11407|-0.11407|-0.099065|-0.094065|-0.089065|-0.089065|-0.11407|-0.10407|-0.12407|-0.12907|-0.16907|-0.21407|-0.22907|-0.25407|-0.24407|-0.26907|-0.33407|-0.40907|-0.44407|-0.48907|-0.55407|-0.64907|-0.78907|-0.98407|-1.1591|-1.2491|-1.2291|-1.1791|-1.1491|-1.1091|-1.0441|-0.94407|-0.84907|-0.74907|-0.67907|-0.63407|-0.57907|-0.53907|-0.48407|-0.45407|-0.41407|-0.35407|-0.30407|-0.23407|-0.17407|-0.11907|-0.084065|-0.084065|-0.099065|-0.099065|-0.064065|-0.054065|-0.044065|-0.059065|-0.064065|-0.059065|-0.049065|-0.029065|-0.024065|-0.039065|-0.044065|-0.039065|-0.034065|-0.044065|-0.024065|-0.039065|-0.034065|-0.034065|-0.019065|-0.014065|-0.019065|-0.019065|-0.024065|-0.019065|-0.0090654|0.015935|0.030935|0.025935|0.020935|0.0059346|0.035935|0.050935|0.055935|0.055935|0.045935|0.045935|0.060935|0.070935|0.075935|0.065935|0.085935|0.095935|0.10593|0.12593|0.12093|0.12593|0.12593|0.14593|0.15593|0.17593|0.18593|0.18593|0.17093|0.19593|0.20593|0.23593|0.22093|0.21593|0.22093|0.22093|0.23093|0.23593|0.26093|0.25593|0.25593|0.25593|0.27593|0.30093|0.30093|0.30593|0.30593|0.30093|0.31093|0.32593|0.31593|0.32593|0.31593|0.32093|0.32093|0.35093|0.35593|0.35093|0.34093|0.34593|0.36093|0.36593|0.36093|0.34593|0.34593|0.35093|0.35593|0.36593|0.35593|0.35093|0.34093|0.33093|0.33093|0.33593|0.32593|0.32093|0.30093|0.29593|0.29593|0.30093|0.28593|0.28093|0.25093|0.26093|0.25593|0.28093|0.26593|0.26093|0.24593|0.23593|0.24093|0.23093|0.22593|0.21093|0.19093|0.18093|0.17593|0.17093|0.15093|0.16093|0.14593|0.13093|0.14593|0.15093|0.13593|0.12593|0.11093|0.11093|0.10593|0.12593|0.11593|0.10093|0.070935|0.075935|0.075935|0.095935|0.060935|0.050935|0.045935|0.035935|0.035935|0.045935|0.040935|0.035935|0.015935|0.015935|0.020935|0.025935|0.020935|0.010935|0.0059346|-0.0090654|0.00093457|-0.0090654|-0.024065|-0.039065|-0.049065|-0.039065|-0.029065|-0.029065|-0.034065|-0.059065|-0.054065|-0.069065|-0.054065|-0.049065|-0.054065|-0.059065|-0.069065|-0.079065|-0.069065|-0.059065|-0.074065|-0.089065|-0.099065|-0.10407|-0.094065|
-0.10907|-0.10407|-0.10907|-0.10907|-0.13407|-0.14407|-0.14407|-0.13907|-0.12907|-0.14407|-0.15407|-0.17407|-0.16907|-0.13907|-0.13407|-0.13407|-0.15407|-0.15407|-0.16407|-0.14907|-0.14407|-0.13407|-0.15407|-0.15907|-0.16407|-0.14907|-0.13907|-0.16907|-0.18407|-0.18407|-0.17407|-0.16407|-0.15907|-0.16407|-0.17907|-0.18407|-0.17907|-0.17407|-0.15407|-0.16907|-0.16907|-0.16907|-0.16907|-0.15907|-0.15407|-0.14907|-0.17407|-0.17907|-0.17407|-0.15907|-0.17907|-0.17907|-0.18907|-0.18407|-0.17907|-0.16907|-0.16407|-0.16907|-0.17907|-0.18407|-0.17907|-0.15907|-0.14907|-0.15407|-0.15407|-0.15407|-0.15407|-0.14407|-0.12907|-0.12907|-0.14407|-0.14907|-0.13907|-0.11907|-0.12907|-0.15407|-0.17907|-0.21407|-0.21407|-0.22407|-0.23907|-0.25407|-0.26907|-0.31907|-0.39407|-0.46407|-0.50907|-0.55407|-0.62907|-0.73407|-0.81907|-0.91907|-1.0691|-1.2191|-1.3341|-1.3591|-1.3141|-1.2391|-1.1791|-1.1141|-1.0291|-0.93907|-0.85407|-0.75907|-0.69407|-0.62907|-0.60407|-0.54907|-0.50407|-0.43907|-0.36907|-0.30407|-0.24407|-0.19907|-0.14407|-0.11407|-0.089065|-0.094065|-0.10407|-0.094065|-0.084065|-0.069065|-0.069065|-0.064065|-0.074065|-0.074065|-0.059065|-0.054065|-0.049065|-0.049065|-0.049065|-0.054065|-0.059065|-0.039065|-0.039065|-0.029065|-0.049065|-0.044065|-0.039065|-0.044065|-0.014065|-0.014065|-0.014065|-0.024065|-0.014065|0.00093457|0.015935|0.025935|0.0059346|0.010935|0.025935|0.030935|0.040935|0.035935|0.030935|0.020935|0.035935|0.050935|0.055935|0.065935|0.065935|0.055935|0.075935|0.085935|0.10593|0.090935|0.095935|0.10093|0.12593|0.14093|0.16093|0.16093|0.14093|0.15593|0.15593|0.18093|0.17593|0.18593|0.18093|0.19093|0.19093|0.22093|0.22593|0.23593|0.23093|0.23093|0.25093|0.25593|0.27093|0.28593|0.27593|0.28093|0.28593|0.31593|0.31593|0.31593|0.30093|0.29593|0.30593|0.32593|0.33593|0.33593|0.32093|0.32093|0.34093|0.34093|0.34093|0.34093|0.33593|0.33593|0.33093|0.34593|0.35593|0.34093|0.32093|0.31093|0.31593|0.32593|0.33093|0.32093|0.29593|0.29593|0.30093|0.30593|0.30093|0.28593|0.26593|0.25093|0.26093|0.26593|0.26593|0.25093|0.23593|0.23093|0.24593|0.24593|0.24093|0.23093|0.20593|0.19593|0.19593|0.19593|0.17593|0.18593|0.16593|0.16093|0.14593|0.15093|0.17593|0.15093|0.14093|0.12593|0.11093|0.13593|0.14593|0.12093|0.11093|0.095935|0.10093|0.10593|0.095935|0.085935|0.065935|0.050935|0.055935|0.060935|0.065935|0.060935|0.050935|0.030935|0.020935|0.040935|0.040935|0.025935|0.00093457|-0.014065|-0.0040654|0.0059346|0.00093457|-0.014065|-0.034065|-0.049065|-0.049065|-0.054065|-0.039065|-0.049065|-0.059065|-0.074065|-0.069065|-0.064065|-0.049065|-0.069065|-0.079065|-0.084065|-0.084065|-0.079065|-0.064065|-0.074065|-0.089065|-0.094065|
-0.11907|-0.11407|-0.12907|-0.13907|-0.14907|-0.12907|-0.13407|-0.14407|-0.15407|-0.17907|-0.14907|-0.14407|-0.13907|-0.15907|-0.15907|-0.16407|-0.15407|-0.12907|-0.13907|-0.16407|-0.18407|-0.16407|-0.16407|-0.13907|-0.14907|-0.13907|-0.15407|-0.15907|-0.15407|-0.13407|-0.13907|-0.13407|-0.13407|-0.14907|-0.14907|-0.14407|-0.14407|-0.16407|-0.15907|-0.17407|-0.17407|-0.16407|-0.14907|-0.14907|-0.16407|-0.16907|-0.17907|-0.14907|-0.13407|-0.13907|-0.13407|-0.14907|-0.13907|-0.12907|-0.13907|-0.13407|-0.16407|-0.16907|-0.15407|-0.14907|-0.13407|-0.16407|-0.17407|-0.16907|-0.15407|-0.14407|-0.12907|-0.13407|-0.13907|-0.12907|-0.13407|-0.11407|-0.094065|-0.10407|-0.10907|-0.11907|-0.13907|-0.15407|-0.16907|-0.17907|-0.20407|-0.23907|-0.25907|-0.25907|-0.27907|-0.34907|-0.43907|-0.51407|-0.53407|-0.57907|-0.65407|-0.75907|-0.89407|-1.0441|-1.1841|-1.2291|-1.2091|-1.1791|-1.1691|-1.1291|-1.0441|-0.93907|-0.84907|-0.78407|-0.72407|-0.67407|-0.60407|-0.54907|-0.50407|-0.48407|-0.45907|-0.41407|-0.35907|-0.27907|-0.19907|-0.15407|-0.11407|-0.089065|-0.059065|-0.054065|-0.059065|-0.054065|-0.069065|-0.069065|-0.059065|-0.054065|-0.049065|-0.049065|-0.049065|-0.044065|-0.029065|-0.014065|0.00093457|-0.014065|-0.029065|-0.039065|-0.024065|0.0059346|0.00093457|-0.019065|-0.029065|-0.024065|-0.0090654|0.015935|0.0059346|0.015935|0.010935|0.015935|0.020935|0.020935|0.040935|0.035935|0.025935|0.035935|0.070935|0.075935|0.080935|0.080935|0.065935|0.070935|0.090935|0.11093|0.11093|0.11593|0.10593|0.095935|0.10593|0.14093|0.14093|0.14593|0.13093|0.13093|0.16093|0.18593|0.20593|0.20593|0.21093|0.21593|0.22093|0.23093|0.24593|0.24593|0.25093|0.24093|0.25093|0.27093|0.28593|0.29093|0.28093|0.27593|0.28593|0.29593|0.31593|0.30593|0.30093|0.30093|0.31593|0.34593|0.36093|0.35093|0.34593|0.34593|0.36593|0.36093|0.35593|0.33593|0.33593|0.34093|0.35593|0.37093|0.36593|0.36093|0.33593|0.33093|0.34093|0.34593|0.34093|0.34593|0.33593|0.31593|0.32593|0.33093|0.33093|0.33093|0.30593|0.29593|0.29593|0.30093|0.28593|0.28093|0.25593|0.25593|0.26093|0.27093|0.25593|0.21593|0.21093|0.20593|0.22593|0.23093|0.23093|0.21593|0.21093|0.18593|0.18593|0.18093|0.19093|0.17093|0.15093|0.14093|0.14093|0.14593|0.14593|0.12593|0.12593|0.11093|0.11593|0.12093|0.12593|0.10593|0.090935|0.085935|0.10093|0.085935|0.085935|0.070935|0.060935|0.045935|0.025935|0.035935|0.040935|0.035935|0.015935|-0.0040654|-0.024065|-0.014065|0.010935|-0.0090654|-0.029065|-0.034065|-0.014065|-0.0040654|-0.0090654|-0.024065|-0.024065|-0.029065|-0.024065|-0.029065|-0.029065|-0.049065|-0.059065|-0.064065|-0.064065|-0.049065|-0.054065|-0.079065|-0.089065|-0.099065|-0.074065|-0.069065|
-0.089065|-0.094065|-0.094065|-0.10907|-0.11407|-0.11907|-0.12407|-0.10907|-0.10907|-0.13907|-0.14407|-0.12407|-0.10407|-0.094065|-0.094065|-0.10907|-0.11907|-0.11407|-0.099065|-0.094065|-0.12907|-0.13407|-0.13907|-0.12907|-0.11407|-0.11907|-0.11407|-0.12907|-0.13407|-0.12907|-0.11407|-0.10907|-0.10907|-0.12407|-0.12407|-0.10907|-0.094065|-0.099065|-0.094065|-0.10407|-0.10407|-0.10407|-0.084065|-0.094065|-0.10907|-0.11907|-0.10907|-0.11407|-0.099065|-0.089065|-0.11907|-0.11407|-0.11407|-0.10407|-0.089065|-0.094065|-0.10407|-0.099065|-0.10407|-0.099065|-0.089065|-0.094065|-0.084065|-0.10407|-0.10407|-0.089065|-0.084065|-0.074065|-0.084065|-0.089065|-0.084065|-0.059065|-0.039065|-0.049065|-0.054065|-0.084065|-0.10407|-0.10407|-0.11407|-0.13407|-0.15407|-0.18907|-0.20907|-0.23407|-0.26407|-0.32907|-0.38907|-0.43407|-0.47407|-0.53907|-0.62907|-0.73907|-0.89407|-1.0541|-1.1391|-1.1541|-1.1191|-1.0941|-1.0541|-1.0341|-0.94407|-0.83907|-0.74407|-0.67407|-0.61407|-0.57907|-0.52407|-0.46407|-0.42407|-0.37407|-0.32907|-0.27407|-0.21407|-0.14407|-0.084065|-0.044065|-0.034065|-0.039065|-0.024065|-0.014065|-0.0040654|0.010935|0.010935|0.00093457|0.00093457|0.0059346|0.015935|0.015935|0.010935|-0.0040654|-0.0040654|0.010935|0.025935|0.030935|0.035935|0.030935|0.025935|0.040935|0.060935|0.070935|0.060935|0.050935|0.055935|0.080935|0.085935|0.095935|0.10093|0.080935|0.070935|0.090935|0.11593|0.10093|0.10093|0.10593|0.10593|0.13593|0.14093|0.14593|0.15093|0.15093|0.14093|0.17593|0.17093|0.19593|0.19093|0.19593|0.20093|0.20593|0.21593|0.21593|0.22593|0.22593|0.21093|0.24593|0.25593|0.26093|0.26593|0.26093|0.26593|0.27593|0.30593|0.31093|0.30593|0.31093|0.31093|0.33093|0.35593|0.35593|0.34593|0.33093|0.33593|0.35093|0.35093|0.35593|0.36093|0.35593|0.35093|0.37093|0.37093|0.38593|0.37593|0.36593|0.38093|0.39093|0.40593|0.40093|0.39593|0.39093|0.39093|0.39593|0.40093|0.40093|0.39093|0.36093|0.36593|0.37593|0.39093|0.37593|0.36093|0.35093|0.33593|0.35093|0.35093|0.35093|0.34093|0.33093|0.33593|0.33093|0.33093|0.33093|0.31093|0.27593|0.26093|0.26593|0.26593|0.26593|0.24093|0.21593|0.22093|0.21093|0.22093|0.23093|0.21093|0.19093|0.18593|0.19593|0.18093|0.20593|0.18593|0.16593|0.15093|0.17093|0.16593|0.16093|0.14593|0.12593|0.095935|0.11093|0.12093|0.11593|0.095935|0.080935|0.070935|0.085935|0.090935|0.095935|0.085935|0.065935|0.065935|0.060935|0.080935|0.080935|0.050935|0.040935|0.015935|0.045935|0.025935|0.025935|0.010935|0.00093457|-0.0090654|-0.014065|-0.0040654|-0.0040654|-0.014065|-0.034065|-0.039065|-0.029065|-0.019065|-0.029065|-0.029065|-0.049065|-0.064065|-0.049065|-0.039065|-0.054065|-0.074065|-0.084065|-0.084065|-0.074065|
-0.089065|-0.079065|-0.074065|-0.064065|-0.089065|-0.10407|-0.094065|-0.089065|-0.074065|-0.084065|-0.099065|-0.12407|-0.12407|-0.11907|-0.10907|-0.10907|-0.11907|-0.11907|-0.12407|-0.11407|-0.094065|-0.10907|-0.11407|-0.13407|-0.12407|-0.12407|-0.10407|-0.11407|-0.11907|-0.11907|-0.12407|-0.11907|-0.11407|-0.11407|-0.12407|-0.13407|-0.12907|-0.12407|-0.11407|-0.11907|-0.13407|-0.13907|-0.13407|-0.12907|-0.11907|-0.10907|-0.12407|-0.12407|-0.12407|-0.13407|-0.12407|-0.11907|-0.12407|-0.13407|-0.14407|-0.12907|-0.11907|-0.11907|-0.12907|-0.13907|-0.14907|-0.12407|-0.11907|-0.10907|-0.11907|-0.11907|-0.12407|-0.11407|-0.089065|-0.094065|-0.11907|-0.10907|-0.10907|-0.089065|-0.084065|-0.079065|-0.089065|-0.10407|-0.13907|-0.13907|-0.13907|-0.14907|-0.18907|-0.21907|-0.23407|-0.26907|-0.33407|-0.42407|-0.48907|-0.55907|-0.64407|-0.74407|-0.85907|-1.0141|-1.1891|-1.2591|-1.2441|-1.1841|-1.1091|-1.0541|-0.98907|-0.90907|-0.81907|-0.71907|-0.62407|-0.57407|-0.53907|-0.49907|-0.45907|-0.40907|-0.33907|-0.29907|-0.24407|-0.18907|-0.14907|-0.094065|-0.054065|-0.044065|-0.054065|-0.049065|-0.039065|-0.034065|-0.0040654|-0.0090654|-0.0090654|-0.0090654|-0.014065|0.0059346|0.020935|0.010935|0.010935|0.010935|-0.0040654|-0.019065|0.025935|0.025935|0.025935|0.025935|0.015935|0.035935|0.060935|0.055935|0.045935|0.045935|0.040935|0.040935|0.080935|0.075935|0.075935|0.080935|0.090935|0.095935|0.11093|0.11093|0.11093|0.10593|0.11593|0.13093|0.14593|0.14593|0.12093|0.15093|0.16593|0.18093|0.19593|0.20593|0.22093|0.20593|0.20593|0.22093|0.23593|0.24593|0.24093|0.23093|0.22593|0.24093|0.27093|0.28093|0.28093|0.29093|0.29093|0.30593|0.32093|0.33593|0.33093|0.32593|0.32593|0.34593|0.37093|0.37593|0.37593|0.36593|0.36093|0.35093|0.37093|0.39093|0.38593|0.36593|0.37093|0.39093|0.40093|0.39593|0.39593|0.38593|0.37593|0.39593|0.41593|0.41093|0.39593|0.40093|0.38593|0.39593|0.39593|0.39593|0.38093|0.36593|0.35093|0.35093|0.36093|0.36593|0.34093|0.33593|0.32593|0.32593|0.33593|0.32593|0.31093|0.31093|0.30093|0.30093|0.31093|0.30593|0.28593|0.26093|0.24093|0.24093|0.26093|0.25593|0.24593|0.23093|0.22593|0.22593|0.23593|0.22093|0.22093|0.20093|0.20093|0.20593|0.19593|0.21093|0.18593|0.17593|0.16593|0.17093|0.17593|0.15093|0.15593|0.13593|0.11593|0.13593|0.15093|0.13593|0.13093|0.11593|0.11093|0.10593|0.11093|0.12093|0.11093|0.095935|0.075935|0.075935|0.090935|0.080935|0.060935|0.050935|0.030935|0.045935|0.035935|0.035935|0.015935|-0.0040654|0.00093457|0.010935|0.020935|0.010935|0.010935|0.00093457|0.00093457|0.015935|0.020935|0.015935|-0.0090654|-0.019065|-0.024065|-0.019065|-0.0090654|-0.014065|-0.024065|-0.029065|
-0.014065|0.00093457|-0.0090654|-0.024065|-0.039065|-0.044065|-0.024065|-0.029065|-0.029065|-0.049065|-0.059065|-0.049065|-0.049065|-0.044065|-0.049065|-0.059065|-0.074065|-0.064065|-0.049065|-0.044065|-0.039065|-0.054065|-0.069065|-0.074065|-0.074065|-0.054065|-0.064065|-0.069065|-0.074065|-0.079065|-0.054065|-0.054065|-0.054065|-0.069065|-0.094065|-0.084065|-0.074065|-0.054065|-0.054065|-0.064065|-0.069065|-0.069065|-0.064065|-0.054065|-0.064065|-0.064065|-0.069065|-0.074065|-0.064065|-0.064065|-0.059065|-0.069065|-0.074065|-0.089065|-0.084065|-0.059065|-0.049065|-0.059065|-0.064065|-0.069065|-0.054065|-0.034065|-0.049065|-0.064065|-0.079065|-0.084065|-0.054065|-0.049065|-0.044065|-0.049065|-0.059065|-0.049065|-0.044065|-0.024065|-0.024065|-0.014065|-0.029065|-0.044065|-0.064065|-0.074065|-0.094065|-0.13407|-0.17407|-0.19407|-0.19407|-0.21907|-0.28407|-0.34907|-0.39407|-0.44407|-0.49907|-0.59907|-0.71907|-0.90907|-1.0441|-1.0841|-1.0491|-0.99907|-0.96907|-0.92907|-0.87407|-0.80407|-0.70907|-0.62407|-0.57407|-0.52407|-0.48407|-0.43907|-0.39907|-0.34907|-0.30407|-0.23907|-0.17407|-0.10907|-0.054065|-0.0040654|0.010935|0.00093457|0.00093457|0.00093457|0.00093457|0.025935|0.025935|0.015935|0.0059346|0.0059346|0.015935|0.020935|0.040935|0.040935|0.045935|0.040935|0.040935|0.050935|0.070935|0.060935|0.060935|0.045935|0.065935|0.070935|0.075935|0.075935|0.065935|0.080935|0.090935|0.10093|0.10593|0.10093|0.095935|0.10593|0.11593|0.12593|0.13093|0.13593|0.13593|0.15593|0.16593|0.17093|0.17593|0.16593|0.18093|0.18593|0.20093|0.21593|0.23093|0.21593|0.22093|0.23593|0.25093|0.26593|0.27093|0.27593|0.26593|0.28093|0.29093|0.32593|0.32593|0.31593|0.30593|0.30593|0.33593|0.34593|0.35093|0.33593|0.34093|0.34593|0.36593|0.37593|0.38593|0.37093|0.37093|0.38093|0.40093|0.40593|0.42093|0.40593|0.39593|0.40093|0.40593|0.41593|0.41593|0.39593|0.39593|0.38593|0.41093|0.40593|0.41093|0.39593|0.38593|0.37593|0.38593|0.39593|0.38593|0.38593|0.35093|0.35593|0.37093|0.36593|0.36593|0.33593|0.33593|0.32093|0.33093|0.33093|0.32093|0.29593|0.28093|0.27593|0.29093|0.27593|0.28093|0.26593|0.26593|0.24593|0.23593|0.26093|0.25093|0.23593|0.21593|0.21093|0.22093|0.22593|0.21093|0.19093|0.17593|0.17093|0.17593|0.17593|0.17593|0.15593|0.14593|0.13593|0.15593|0.15593|0.15593|0.14093|0.12593|0.12093|0.12593|0.13593|0.11093|0.10593|0.085935|0.090935|0.095935|0.10093|0.085935|0.075935|0.065935|0.050935|0.065935|0.070935|0.070935|0.050935|0.035935|0.040935|0.055935|0.055935|0.035935|0.025935|0.020935|0.010935|0.015935|0.025935|0.015935|-0.0040654|-0.0090654|-0.0040654|-0.0040654|0.010935|0.010935|0.00093457|-0.0040654|-0.014065|-0.0040654|0.00093457|0.010935|-0.0040654|-0.024065|-0.019065|
-0.0040654|0.0059346|0.0059346|0.0059346|-0.0040654|-0.0090654|-0.0090654|0.00093457|0.010935|0.00093457|-0.0040654|-0.039065|-0.034065|-0.029065|-0.029065|-0.039065|-0.044065|-0.044065|-0.034065|-0.039065|-0.024065|-0.029065|-0.014065|-0.034065|-0.034065|-0.029065|-0.024065|-0.024065|-0.029065|-0.044065|-0.044065|-0.029065|-0.034065|-0.029065|-0.044065|-0.049065|-0.049065|-0.039065|-0.039065|-0.029065|-0.049065|-0.049065|-0.049065|-0.029065|-0.014065|-0.019065|-0.024065|-0.029065|-0.039065|-0.034065|-0.024065|-0.019065|-0.039065|-0.039065|-0.039065|-0.034065|-0.029065|-0.019065|-0.034065|-0.039065|-0.039065|-0.019065|-0.024065|-0.019065|-0.019065|-0.024065|-0.029065|-0.019065|-0.014065|-0.014065|-0.024065|-0.029065|-0.034065|0.00093457|0.010935|0.010935|-0.0040654|-0.029065|-0.039065|-0.059065|-0.059065|-0.074065|-0.10407|-0.14907|-0.17907|-0.20907|-0.24907|-0.30407|-0.37407|-0.43907|-0.51907|-0.60907|-0.71407|-0.83407|-0.95407|-1.0141|-1.0141|-0.95907|-0.90907|-0.85407|-0.80407|-0.73907|-0.64907|-0.56907|-0.49907|-0.43907|-0.39907|-0.36907|-0.31907|-0.26407|-0.19907|-0.16407|-0.10907|-0.074065|-0.049065|-0.019065|0.025935|0.025935|0.020935|0.010935|0.030935|0.045935|0.055935|0.070935|0.060935|0.055935|0.060935|0.070935|0.080935|0.085935|0.065935|0.060935|0.055935|0.080935|0.090935|0.085935|0.085935|0.070935|0.065935|0.090935|0.11093|0.10093|0.11093|0.10593|0.10093|0.12093|0.14593|0.13093|0.13093|0.13093|0.13593|0.14093|0.15093|0.16593|0.16093|0.16093|0.16093|0.19093|0.20093|0.20593|0.19093|0.19093|0.21593|0.23093|0.25593|0.25093|0.25093|0.24593|0.25093|0.26593|0.27593|0.28593|0.29093|0.30593|0.30593|0.32093|0.34093|0.34093|0.34093|0.31593|0.33593|0.36093|0.37593|0.37093|0.36593|0.36593|0.37593|0.38093|0.39593|0.39593|0.38593|0.35593|0.37593|0.38593|0.40093|0.41593|0.38593|0.38093|0.38093|0.39093|0.41093|0.40093|0.38593|0.37593|0.38593|0.39093|0.40093|0.37593|0.37593|0.36593|0.35593|0.36593|0.37593|0.36593|0.34093|0.33593|0.33593|0.34593|0.35093|0.33593|0.31593|0.29593|0.29593|0.30093|0.30093|0.29093|0.27093|0.26093|0.26093|0.25593|0.26593|0.25593|0.23593|0.23093|0.20593|0.23093|0.23093|0.23093|0.21093|0.20593|0.20093|0.20093|0.20093|0.20093|0.18593|0.16593|0.15093|0.16593|0.16593|0.16093|0.14093|0.12593|0.12593|0.13593|0.15093|0.12593|0.12093|0.11093|0.12093|0.12093|0.13093|0.11093|0.095935|0.070935|0.065935|0.080935|0.075935|0.075935|0.060935|0.045935|0.050935|0.050935|0.055935|0.045935|0.030935|0.020935|0.025935|0.035935|0.040935|0.035935|0.025935|0.010935|0.015935|0.020935|0.025935|0.020935|0.010935|-0.0090654|-0.0090654|0.0059346|0.0059346|0.00093457|-0.014065|-0.014065|-0.029065|-0.014065|-0.0040654|-0.0040654|-0.034065|-0.024065|
0.0059346|0.0059346|-0.0090654|-0.024065|-0.029065|-0.029065|-0.014065|-0.0040654|-0.014065|-0.024065|-0.039065|-0.044065|-0.044065|-0.034065|-0.029065|-0.034065|-0.039065|-0.039065|-0.029065|-0.024065|-0.039065|-0.059065|-0.069065|-0.059065|-0.054065|-0.054065|-0.049065|-0.064065|-0.069065|-0.069065|-0.054065|-0.054065|-0.044065|-0.049065|-0.069065|-0.054065|-0.044065|-0.034065|-0.044065|-0.059065|-0.064065|-0.069065|-0.049065|-0.044065|-0.044065|-0.059065|-0.064065|-0.064065|-0.044065|-0.039065|-0.049065|-0.054065|-0.059065|-0.044065|-0.054065|-0.029065|-0.029065|-0.049065|-0.064065|-0.059065|-0.054065|-0.049065|-0.059065|-0.044065|-0.059065|-0.039065|-0.029065|-0.024065|-0.039065|-0.034065|-0.029065|-0.019065|-0.0040654|0.00093457|-0.019065|-0.049065|-0.049065|-0.069065|-0.064065|-0.069065|-0.11407|-0.15407|-0.18907|-0.21407|-0.23407|-0.28407|-0.35407|-0.40407|-0.46407|-0.53407|-0.59907|-0.68407|-0.78907|-0.90907|-0.96407|-0.97407|-0.93907|-0.90907|-0.86407|-0.81907|-0.77407|-0.70407|-0.63407|-0.57407|-0.51407|-0.48407|-0.45407|-0.39407|-0.34907|-0.29907|-0.26907|-0.20907|-0.17907|-0.099065|-0.049065|-0.019065|0.0059346|0.0059346|0.010935|0.020935|0.030935|0.030935|0.025935|0.030935|0.025935|0.040935|0.045935|0.065935|0.070935|0.055935|0.040935|0.065935|0.080935|0.080935|0.080935|0.070935|0.065935|0.085935|0.095935|0.10593|0.10093|0.085935|0.080935|0.085935|0.10593|0.11593|0.12093|0.10593|0.11593|0.11593|0.13593|0.15093|0.14093|0.13593|0.14593|0.15593|0.16093|0.18093|0.17593|0.17593|0.17093|0.18093|0.20093|0.21593|0.22593|0.21093|0.21093|0.21593|0.23093|0.24593|0.24593|0.24593|0.25593|0.26093|0.29593|0.30593|0.30593|0.30593|0.29593|0.32593|0.32593|0.34093|0.34593|0.33593|0.34593|0.33593|0.35593|0.37093|0.38093|0.36593|0.36093|0.37593|0.38593|0.39593|0.41593|0.39593|0.40093|0.41093|0.42093|0.43593|0.43593|0.41593|0.40593|0.42093|0.43093|0.44093|0.43593|0.42093|0.41593|0.42093|0.43593|0.43593|0.43593|0.41093|0.41093|0.39593|0.41593|0.41593|0.41593|0.40093|0.39093|0.39593|0.39093|0.40593|0.39593|0.37093|0.37593|0.36093|0.36593|0.37093|0.37593|0.35093|0.33093|0.33093|0.33593|0.35593|0.33593|0.30593|0.30093|0.31093|0.30093|0.32593|0.30593|0.29093|0.27593|0.27593|0.28093|0.28093|0.27093|0.24593|0.23593|0.24593|0.23093|0.24593|0.24593|0.23093|0.21593|0.21093|0.22593|0.22093|0.21093|0.19093|0.19093|0.19593|0.20093|0.17593|0.18593|0.18093|0.17093|0.16593|0.17093|0.16593|0.15593|0.14093|0.13093|0.13093|0.12593|0.13593|0.12093|0.10593|0.095935|0.085935|0.10093|0.11093|0.11093|0.090935|0.075935|0.090935|0.080935|0.080935|0.080935|0.050935|0.065935|0.035935|0.070935|0.065935|0.055935|0.030935|0.035935|0.030935|
0.035935|0.025935|0.00093457|-0.0040654|-0.019065|0.00093457|-0.0040654|0.00093457|-0.0090654|-0.014065|-0.014065|0.0059346|0.010935|0.00093457|-0.0040654|-0.014065|-0.0040654|-0.0040654|0.0059346|0.0059346|-0.0090654|-0.0090654|0.0059346|0.0059346|0.015935|0.010935|-0.0090654|-0.014065|-0.014065|0.00093457|-0.0040654|-0.014065|-0.014065|-0.039065|-0.0090654|-0.0040654|0.0059346|-0.0090654|-0.014065|-0.019065|-0.019065|-0.0040654|0.010935|-0.0090654|-0.0090654|-0.0090654|-0.0090654|-0.0040654|-0.0040654|0.00093457|-0.014065|-0.019065|-0.0040654|0.0059346|0.0059346|0.0059346|0.00093457|-0.0090654|-0.0040654|0.0059346|0.010935|0.0059346|-0.0040654|-0.0090654|0.010935|0.030935|0.030935|0.020935|0.015935|0.0059346|0.010935|0.020935|0.035935|0.010935|-0.0090654|-0.014065|-0.019065|-0.029065|-0.039065|-0.064065|-0.099065|-0.12907|-0.12907|-0.15907|-0.19407|-0.24407|-0.31407|-0.35407|-0.38907|-0.44407|-0.51907|-0.63907|-0.74907|-0.83907|-0.89907|-0.91407|-0.89907|-0.88407|-0.85407|-0.82407|-0.75407|-0.68407|-0.61407|-0.56907|-0.51907|-0.46407|-0.39907|-0.35407|-0.31907|-0.27907|-0.25407|-0.20907|-0.15907|-0.10407|-0.049065|-0.019065|-0.0040654|0.00093457|0.025935|0.055935|0.050935|0.060935|0.050935|0.040935|0.070935|0.085935|0.085935|0.080935|0.085935|0.080935|0.090935|0.10593|0.11593|0.10593|0.10093|0.085935|0.11093|0.11093|0.12093|0.11593|0.10593|0.10093|0.11093|0.13593|0.15093|0.13593|0.13093|0.13593|0.14093|0.16093|0.16593|0.16093|0.16093|0.16093|0.16093|0.18093|0.19093|0.19093|0.17593|0.17593|0.19593|0.21093|0.21593|0.22093|0.22093|0.22093|0.22593|0.23593|0.25093|0.24593|0.25093|0.24093|0.26593|0.27593|0.29093|0.29593|0.28593|0.29093|0.29593|0.32093|0.31593|0.32593|0.31593|0.29593|0.31093|0.32593|0.35093|0.35093|0.35093|0.35093|0.37093|0.39093|0.40093|0.40093|0.38593|0.38593|0.40593|0.42093|0.42093|0.41593|0.41593|0.40593|0.40093|0.41593|0.43093|0.41093|0.40593|0.41093|0.42093|0.42593|0.43093|0.41593|0.42093|0.41593|0.41593|0.43593|0.44093|0.43593|0.41593|0.41093|0.42093|0.41093|0.40093|0.40093|0.38593|0.38093|0.38093|0.39593|0.37593|0.38593|0.37593|0.35593|0.36593|0.36593|0.36093|0.35593|0.32093|0.31593|0.32593|0.33093|0.32093|0.32093|0.30593|0.29093|0.29093|0.29593|0.28593|0.27593|0.26093|0.24593|0.25093|0.25593|0.25593|0.24593|0.21593|0.22593|0.22593|0.23593|0.24093|0.22093|0.20593|0.20593|0.20593|0.19593|0.21093|0.19093|0.18093|0.16093|0.16593|0.17093|0.16593|0.16093|0.15093|0.13593|0.12593|0.13593|0.14593|0.14093|0.11593|0.10593|0.12593|0.13093|0.12593|0.12093|0.10093|0.095935|0.10093|0.095935|0.10093|0.090935|0.065935|0.070935|0.080935|0.070935|0.080935|0.070935|0.055935|0.050935|0.065935|0.065935|
